-0.246100136
-0.213849483
-0.219009588
-0.240940032
-0.26158045
-0.26803058
-0.274480711
-0.24481011
-0.253840293
-0.265450528
-0.247390162
-0.226749744
-0.195789117
-0.207399352
-0.24481011
-0.22803977
-0.240940032
-0.237069953
-0.238359979
-0.219009588
-0.202239248
-0.230619823
-0.237069953
-0.226749744
-0.217719561
-0.209979405
-0.230619823
-0.26158045
-0.259000397
-0.191919039
-0.179018778
-0.202239248
-0.225459718
-0.247390162
-0.247390162
-0.22803977
-0.226749744
-0.219009588
-0.216429535
-0.202239248
-0.199659196
-0.219009588
-0.237069953
-0.26158045
-0.269320606
-0.237069953
-0.211269431
-0.195789117
-0.180308804
-0.207399352
-0.212559457
-0.225459718
-0.233199875
-0.216429535
-0.219009588
-0.208689379
-0.207399352
-0.18159883
-0.179018778
-0.195789117
-0.207399352
-0.188048961
-0.176438726
-0.176438726
-0.179018778
-0.168698569
-0.144188073
-0.137737942
-0.159668386
-0.189338987
-0.172568647
-0.15837836
-0.157088334
-0.129997785
-0.127417733
-0.151928229
-0.153218255
-0.157088334
-0.200949222
-0.176438726
-0.136447916
-0.119677576
-0.11838755
-0.101617211
-0.097747132
-0.144188073
-0.154508281
-0.105487289
-0.066786505
-0.073236636
-0.087426923
-0.07839674
-0.100327184
-0.110647393
-0.09516708
-0.086136897
-0.086136897
-0.056466296
-0.057756322
-0.080976793
-0.075816688
-0.074526662
-0.07839674
-0.066786505
-0.042276009
-0.029375748
-0.044856061
-0.034535852
-0.011315382
-0.000995173
-0.017765513
-0.01518546
-0.006155278
-0.01518546
-0.037115905
-0.019055539
-0.000995173
0.000294853
0.001584879
0.023515323
0.00803501
-0.016475487
0.000294853
0.023515323
-0.004865251
-0.004865251
-0.006155278
0.018355219
0.03125548
0.005454957
-0.00873533
0.006744984
0.033835532
0.026095375
0.013195114
0.013195114
-0.00873533
-0.000995173
0.029965454
0.05447595
0.041575689
0.033835532
0.024805349
0.024805349
0.033835532
0.033835532
0.027385402
0.046735793
0.058346028
0.069956264
0.09446676
0.072536316
0.020935271
0.01448514
0.026095375
0.03125548
0.03125548
0.058346028
0.072536316
0.05447595
0.046735793
0.066086185
0.060926081
0.044155741
0.048025819
0.050605872
0.053185924
0.064796159
0.10091689
0.107367021
0.067376211
0.068666237
0.103496943
0.130587491
0.149937883
0.15767804
0.183478562
0.1409077
0.129297465
0.158968066
0.153807961
0.142197726
0.179608484
0.196378823
0.213149163
0.218309267
0.22733945
0.226049424
0.210569111
0.189928693
0.191218719
0.222179346
0.237659659
0.291840756
0.29055073
0.289260704
0.298290887
0.312481174
0.302160965
0.322801383
0.320221331
0.309901122
0.30732107
0.324091409
0.374402428
0.445353865
0.453094021
0.43374363
0.397622898
0.387302689
0.404073029
0.436323682
0.465994283
0.462124204
0.459544152
0.447933917
0.450513969
0.471154387
0.495664883
0.517595327
0.518885354
0.512435223
0.512435223
0.52662551
0.534365667
0.553716059
0.562746242
0.553716059
0.56661632
0.573066451
0.610477208
0.628537574
0.616927339
0.611767234
0.625957522
0.627247548
0.623377469
0.6298276
0.60660713
0.607897156
0.655628122
0.672398462
0.658208175
0.654338096
0.658208175
0.664658305
0.681428645
0.691748854
0.702069063
0.682718671
0.686588749
0.700779037
0.707229167
0.668528384
0.691748854
0.729159611
0.738189794
0.744639925
0.722709481
0.698198984
0.731739664
0.75625016
0.734319716
0.712389272
0.713679298
0.709809219
0.726579559
0.73302969
0.769150421
0.776890578
0.776890578
0.785920761
0.780760656
0.76270029
0.775600552
0.792370891
0.784630734
0.773020499
0.787210787
0.800111048
0.771730473
0.789790839
0.806561179
0.794950943
0.775600552
0.805271152
0.813011309
0.793660917
0.807851205
0.810431257
0.792370891
0.76270029
0.75625016
0.761410264
0.77947063
0.778180604
0.798821022
0.787210787
0.797530996
0.798821022
0.833651727
0.815591361
0.785920761
0.782050682
0.792370891
0.798821022
0.81946144
0.837521805
0.815591361
0.818171414
0.840101858
0.843971936
0.833651727
0.814301335
0.798821022
0.792370891
0.816881387
0.838811832
0.855582171
0.841391884
0.834941753
0.832361701
0.820751466
0.833651727
0.807851205
0.774310526
0.769150421
0.789790839
0.813011309
0.814301335
0.79624097
0.798821022
0.792370891
0.800111048
0.783340708
0.776890578
0.797530996
0.776890578
0.75625016
0.76270029
0.780760656
0.798821022
0.797530996
0.757540186
0.747219977
0.761410264
0.77947063
0.751090055
0.744639925
0.73302969
0.736899768
0.735609742
0.738189794
0.766570369
0.774310526
0.766570369
0.75625016
0.773020499
0.765280343
0.765280343
0.782050682
0.788500813
0.809141231
0.793660917
0.800111048
0.822041492
0.8026911
0.818171414
0.79624097
0.807851205
0.811721283
0.827201596
0.837521805
0.813011309
0.760120238
0.787210787
0.807851205
0.818171414
0.822041492
0.814301335
0.805271152
0.820751466
0.818171414
0.809141231
0.784630734
0.791080865
0.801401074
0.791080865
0.810431257
0.813011309
0.806561179
0.789790839
0.810431257
0.860742276
0.868482432
0.849132041
0.836231779
0.82591157
0.816881387
0.809141231
0.814301335
0.810431257
0.807851205
0.787210787
0.797530996
0.780760656
0.771730473
0.785920761
0.811721283
0.846551988
0.847842014
0.836231779
0.862032302
0.885252772
0.918793451
1.007805253
1.028445671
1.074886612
1.130357735
1.179378727
1.242590007
1.309671366
1.375462698
1.403843272
1.434803899
1.48769497
1.556066355
1.625727765
1.657978418
1.719899672
1.746990221
1.806331422
1.824391788
1.784400978
1.784400978
1.86696265
1.875992833
1.901793355
1.904373407
1.852772363
1.837292049
1.801171318
1.779240874
1.771500717
1.71731962
1.634757948
1.540586041
1.442544056
1.370302593
1.323861653
1.27484066
1.224529642
1.143257996
1.099397108
1.034895802
0.92911366
0.862032302
0.846551988
0.793660917
0.751090055
0.752380081
0.754960134
0.729159611
0.723999507
0.729159611
0.721419455
0.763990317
0.75625016
0.760120238
0.770440447
0.763990317
0.757540186
0.757540186
0.748510003
0.760120238
0.753670108
0.718839402
0.705939141
0.662078253
0.651758044
0.654338096
0.593706869
0.507275118
0.49695491
0.478894544
0.469864361
0.413103212
0.369242324
0.371822376
0.357632088
0.339571723
0.291840756
0.22733945
0.178318458
0.158968066
0.151227909
0.111237099
0.104786969
0.080276472
0.044155741
0.045445767
-0.004865251
-0.059046349
-0.061626401
-0.086136897
-0.120967602
-0.126127707
-0.13515789
-0.146768125
-0.157088334
-0.171278621
-0.188048961
-0.194499091
-0.217719561
-0.209979405
-0.215139509
-0.22158964
-0.22803977
-0.243520084
-0.247390162
-0.234489901
-0.235779927
-0.260290423
-0.234489901
-0.230619823
-0.233199875
-0.229329797
-0.231909849
-0.224169692
-0.226749744
-0.217719561
-0.19836917
-0.18159883
-0.180308804
-0.159668386
-0.151928229
-0.16482849
-0.172568647
-0.18159883
-0.209979405
-0.209979405
-0.176438726
-0.180308804
-0.190629013
-0.186758935
-0.173858673
-0.213849483
-0.249970214
-0.234489901
-0.248680188
-0.287380972
-0.315761547
-0.319631625
-0.320921651
-0.355752356
-0.351882278
-0.384132931
-0.424123741
-0.416383584
-0.433153924
-0.473144733
-0.483464942
-0.511845517
-0.529905883
-0.572476745
-0.604727398
-0.612467554
-0.639558103
-0.636978051
-0.662778573
-0.697609278
-0.719539722
-0.751790375
-0.75695048
-0.768560715
-0.829191943
-0.804681446
-0.785331055
-0.830481969
-0.913043641
-0.92336385
-0.933684058
-0.934974085
-0.956904529
-0.980124999
-0.967224738
-0.989155182
-1.01624573
-1.027855965
-1.035596122
-1.053656488
-1.054946514
-1.076876958
-1.112997689
-1.129768029
-1.128478003
-1.120737846
-1.137508186
-1.128478003
-1.120737846
-1.172338891
-1.207169596
-1.254900563
-1.25232051
-1.244580354
-1.247160406
-1.305211581
-1.33230213
-1.337462234
-1.358102652
-1.413573775
-1.452274559
-1.423893984
-1.404543593
-1.445824428
-1.493555395
-1.533546205
-1.556766675
-1.583857223
-1.605787667
-1.622558007
-1.61481785
-1.605787667
-1.643198425
-1.684479261
-1.699959574
-1.729630175
-1.761880828
-1.800581612
-1.808321768
-1.85089263
-1.857342761
-1.848312578
-1.849602604
-1.853472683
-1.876693153
-1.908943806
-1.885723336
-1.892173466
-1.928294198
-1.974735138
-1.990215451
-1.969575034
-1.956674772
-1.943774511
-1.956674772
-1.965704955
-1.968285007
-1.973445112
-1.950224642
-1.936034354
-1.945064537
-1.95409472
-1.947644589
-1.945064537
-1.934744328
-1.910233832
-1.902493675
-1.887013362
-1.894753519
-1.924424119
-1.912813884
-1.899913623
-1.892173466
-1.879273205
-1.903783701
-1.923134093
-1.932164276
-1.917973989
-1.899913623
-1.887013362
-1.915393936
-1.916683963
-1.91410391
-1.924424119
-1.925714145
-1.938614407
-1.910233832
-1.902493675
-1.903783701
-1.923134093
-1.951514668
-1.955384746
-1.968285007
-1.955384746
-1.952804694
-1.978605216
-1.997955608
-1.992795504
-1.978605216
-1.965704955
-1.985055347
-2.009565843
-2.016015974
-2.04052647
-2.003115713
-2.035366366
-2.066326993
-2.045686575
-2.031496287
-2.012145896
-2.018596026
-2.04052647
-2.068907045
-2.04052647
-2.026336183
-2.017306
-2.014725948
-2.023756131
-2.022466104
-2.025046157
-2.019886052
-2.031496287
-2.014725948
-2.023756131
-1.950224642
-1.973445112
-1.985055347
-1.964414929
-1.948934616
-1.960544851
-1.976025164
-1.963124903
-1.924424119
-1.937324381
-1.915393936
-1.868952996
-1.8444425
-1.822512056
-1.814771899
-1.809611795
-1.792841455
-1.786391324
-1.772201037
-1.752850645
-1.710279783
-1.671579
-1.688349339
-1.685769287
-1.65480866
-1.607077694
-1.572246988
-1.578697119
-1.570956962
-1.559346727
-1.563216805
-1.502585578
-1.453564585
-1.453564585
-1.445824428
-1.457434664
-1.438084272
-1.376163018
-1.331012104
-1.300051477
-1.316821816
-1.324561973
-1.285861189
-1.278121033
-1.24587038
-1.240710275
-1.227810014
-1.202009492
-1.202009492
-1.185239152
-1.178789021
-1.169758839
-1.163308708
-1.141378264
-1.112997689
-1.114287715
-1.112997689
-1.115577742
-1.122027872
-1.131058055
-1.116867768
-1.075586932
-1.084617115
-1.093647297
-1.088487193
-1.083327089
-1.085907141
-1.094937324
-1.089777219
-1.076876958
-1.069136801
-1.066556749
-1.042046253
-1.052366462
-1.084617115
-1.089777219
-1.069136801
-1.043336279
-1.018825782
-1.018825782
-1.008505573
-1.007215547
-0.991735234
-0.991735234
-0.985285103
-0.951744424
-0.933684058
-0.938844163
-0.922073823
-0.875632883
-0.835642073
-0.836932099
-0.830481969
-0.845962282
-0.838222126
-0.834352047
-0.787911107
-0.762110584
-0.758240506
-0.755660454
-0.745340245
-0.697609278
-0.6937392
-0.696319252
-0.696319252
-0.674388808
-0.649878312
-0.642138155
-0.620207711
-0.58408698
-0.571186719
-0.580216901
-0.582796954
-0.582796954
-0.553126353
-0.538936066
-0.547966248
-0.578926875
-0.564736588
-0.52732583
-0.558286457
-0.575056797
-0.546676222
-0.551836327
-0.547966248
-0.569896692
-0.568606666
-0.558286457
-0.536356013
-0.519585674
-0.54409617
-0.587957058
-0.616337633
-0.625367816
-0.629237894
-0.608597476
-0.63052792
-0.651168338
-0.652458364
-0.666648651
-0.705349435
-0.763400611
-0.794361237
-0.794361237
-0.79694129
-0.793071211
-0.824031838
-0.884663066
-0.936264111
-0.965934712
-0.978834973
-1.013665678
-1.063976697
-1.09622735
-1.127187977
-1.195559361
-1.253610536
-1.325851999
-1.380033096
-1.435504219
-1.492265369
-1.574827041
-1.684479261
-1.76446088
-1.852182657
-1.933454302
-1.981185269
-1.988925425
-1.999245634
-2.027626209
-2.028916235
-2.017306
-2.006985791
-2.008275817
-2.005695765
-1.97731519
-1.924424119
-1.863792892
-1.790261403
-1.707699731
-1.648358529
-1.622558007
-1.574827041
-1.54515644
-1.494845421
-1.447114455
-1.430344115
-1.396803436
-1.363262757
-1.350362496
-1.333592156
-1.275540981
-1.261350693
-1.288441242
-1.285861189
-1.238130223
-1.180079048
-1.111707663
-1.057526566
-1.043336279
-1.0097956
-0.964644685
-0.945294294
-0.902723432
-0.862732622
-0.815001655
-0.769850741
-0.704059409
-0.625367816
-0.547966248
-0.488625047
-0.505395386
-0.475724786
-0.415093558
-0.350592252
-0.278350789
-0.208689379
-0.189338987
-0.153218255
-0.146768125
-0.109357367
-0.061626401
-0.021635591
0.000294853
0.010615062
0.051895898
0.112527126
0.104786969
0.118977256
0.144777779
0.173158353
0.210569111
0.237659659
0.26733026
0.286680652
0.299580913
0.3137712
0.338281697
0.311191148
0.3137712
0.358922115
0.401492977
0.40020295
0.380852559
0.391172768
0.39375282
0.386012663
0.392462794
0.383432611
0.371822376
0.349891932
0.338281697
0.375692454
0.367952297
0.407943107
0.392462794
0.374402428
0.366662271
0.360212141
0.327961488
0.334411618
0.366662271
0.371822376
0.343441801
0.333121592
0.315061226
0.322801383
0.327961488
0.324091409
0.30732107
0.303450991
0.3137712
0.317641279
0.298290887
0.281520547
0.294420809
0.26733026
0.258300077
0.251849947
0.258300077
0.253139973
0.25055992
0.22733945
0.207989058
0.211859137
0.223469372
0.224759398
0.214439189
0.233789581
0.25055992
0.264750208
0.277650469
0.262170156
0.245399816
0.263460182
0.294420809
0.315061226
0.346021853
0.322801383
0.320221331
0.339571723
0.389882741
0.414393238
0.418263316
0.419553342
0.423423421
0.444063839
0.464704257
0.500824988
0.544685876
0.564036268
0.56661632
0.615637313
0.637567757
0.64659794
0.689168802
0.73947982
0.753670108
0.770440447
0.754960134
0.767860395
0.824621544
0.850422067
0.828491623
0.853002119
0.920083477
0.974264574
0.971684522
0.943303947
0.978134653
1.006515227
1.033605776
1.052956168
1.064566403
1.112297369
1.153578205
1.189698936
1.156158257
1.121327552
1.105847239
1.122617578
1.153578205
1.163898414
1.190988963
1.215499459
1.209049328
1.185828858
1.18195878
1.178088701
1.185828858
1.203889224
1.224529642
1.249040138
1.246460086
1.225819668
1.22839972
1.24517006
1.272260608
1.282580817
1.277420713
1.290320974
1.310961392
1.280000765
1.252910216
1.265810478
1.291611
1.287740922
1.272260608
1.292901026
1.316121496
1.313541444
1.316121496
1.340631993
1.313541444
1.272260608
1.27484066
1.286450895
1.30838134
1.326441705
1.30838134
1.295481078
1.303221235
1.300641183
1.303221235
1.289030948
1.289030948
1.312251418
1.304511261
1.287740922
1.305801287
1.310961392
1.317411522
1.340631993
1.31483147
1.287740922
1.298061131
1.310961392
1.350952202
1.317411522
1.301931209
1.300641183
1.291611
1.305801287
1.30838134
1.309671366
1.301931209
1.322571627
1.325151679
1.296771104
1.292901026
1.292901026
1.298061131
1.254200242
1.223239616
1.295481078
1.313541444
1.294191052
1.303221235
1.310961392
1.277420713
1.273550634
1.256780295
1.285160869
1.304511261
1.298061131
1.273550634
1.269680556
1.25162019
1.237429903
1.24517006
1.264520451
1.270970582
1.250330164
1.192278989
1.212919407
1.238719929
1.216789485
1.224529642
1.233559825
1.210339354
1.241299981
1.242590007
1.220659563
1.215499459
1.206469276
1.220659563
1.261940399
1.285160869
1.234849851
1.234849851
1.247750112
1.233559825
1.223239616
1.227109694
1.261940399
1.242590007
1.243880033
1.225819668
1.215499459
1.234849851
1.223239616
1.241299981
1.25162019
1.233559825
1.237429903
1.223239616
1.238719929
1.25162019
1.240009955
1.233559825
1.230979772
1.218079511
1.206469276
1.22839972
1.230979772
1.236139877
1.273550634
1.256780295
1.223239616
1.214209433
1.192278989
1.167768492
1.179378727
1.201309172
1.194859041
1.176798675
1.160028336
1.131647761
1.077466664
1.074886612
1.071016533
1.087786873
1.105847239
1.087786873
1.099397108
1.126487656
1.171638571
1.167768492
1.15873831
1.198729119
1.258070321
1.276130687
1.318701549
1.374172672
1.443834082
1.530265832
1.552196276
1.597347191
1.629597844
1.672168706
1.756020403
1.830841918
1.877282859
1.879862911
1.945654243
2.003705419
2.073366829
2.110777587
2.081106986
2.051436385
2.083687038
2.128837952
2.122387822
2.154638475
2.14947837
2.095297273
2.048856333
2.035956072
2.004995445
1.954684426
1.872122754
1.756020403
1.659268444
1.619277635
1.547036172
1.456734343
1.392233037
1.276130687
1.176798675
1.160028336
1.127777683
1.005225201
0.90589319
0.845261962
0.761410264
0.723999507
0.704649115
0.700779037
0.702069063
0.723999507
0.69303888
0.673688488
0.687878775
0.707229167
0.711099246
0.717549376
0.753670108
0.789790839
0.798821022
0.801401074
0.816881387
0.800111048
0.788500813
0.785920761
0.791080865
0.782050682
0.778180604
0.782050682
0.776890578
0.742059872
0.708519193
0.702069063
0.694328906
0.696908958
0.69948901
0.674978514
0.650468018
0.625957522
0.638857783
0.620797417
0.64659794
0.655628122
0.628537574
0.598866973
0.588546764
0.61305726
0.624667495
0.615637313
0.584676686
0.54339585
0.545975902
0.56661632
0.580806607
0.558876163
0.471154387
0.469864361
0.491794805
0.512435223
0.529205563
0.490504779
0.465994283
0.459544152
0.450513969
0.438903734
0.455674074
0.468574335
0.469864361
0.441483786
0.454384048
0.437613708
0.445353865
0.446643891
0.444063839
0.449223943
0.431163577
0.380852559
0.358922115
0.37053235
0.382142585
0.402783003
0.411813186
0.391172768
0.389882741
0.379562533
0.340861749
0.321511357
0.326671462
0.318931305
0.336991671
0.343441801
0.343441801
0.342151775
0.333121592
0.338281697
0.338281697
0.29055073
0.258300077
0.26733026
0.246689842
0.22733945
0.223469372
0.245399816
0.262170156
0.257010051
0.246689842
0.217019241
0.209279085
0.251849947
0.242819764
0.237659659
0.217019241
0.209279085
0.226049424
0.224759398
0.217019241
0.200248902
0.210569111
0.211859137
0.210569111
0.202828954
0.222179346
0.215729215
0.171868327
0.143487752
0.153807961
0.147357831
0.149937883
0.156388014
0.160258092
0.135747596
0.125427387
0.120267282
0.103496943
0.107367021
0.126717413
0.098336838
0.082856525
0.088016629
0.091886708
0.075116368
0.090596681
0.109947073
0.109947073
0.075116368
0.063506133
0.055765976
0.066086185
0.082856525
0.078986446
0.084146551
0.082856525
0.042865715
0.035125558
0.029965454
0.026095375
0.013195114
-0.006155278
0.026095375
0.023515323
0.019645245
0.002874905
0.005454957
-0.013895434
-0.028085722
-0.011315382
-0.019055539
-0.026795696
-0.046146087
-0.07194661
-0.105487289
-0.077106714
-0.068076531
-0.057756322
-0.053886244
-0.029375748
-0.028085722
-0.069366558
-0.122257628
-0.120967602
-0.083556845
-0.092587028
-0.13515789
-0.093877054
-0.088716949
-0.102907237
-0.106777315
-0.110647393
-0.097747132
-0.129997785
-0.146768125
-0.144188073
-0.151928229
-0.155798308
-0.133867864
-0.117097524
-0.139027968
-0.148058151
-0.142898046
-0.148058151
-0.175148699
-0.172568647
-0.132577837
-0.115807498
-0.126127707
-0.133867864
-0.123547655
-0.166118517
-0.195789117
-0.191919039
-0.202239248
-0.224169692
-0.208689379
-0.18159883
-0.18159883
-0.200949222
-0.230619823
-0.206109326
-0.188048961
-0.211269431
-0.231909849
-0.259000397
-0.225459718
-0.231909849
-0.220299614
-0.224169692
-0.219009588
-0.217719561
-0.220299614
-0.2048193
-0.22803977
-0.220299614
-0.229329797
-0.230619823
-0.234489901
-0.275770737
-0.269320606
-0.248680188
-0.265450528
-0.266740554
-0.255130319
-0.246100136
-0.252550267
-0.287380972
-0.288670998
-0.30802139
-0.31447152
-0.306731364
-0.311891468
-0.31447152
-0.295121129
-0.313181494
-0.318341599
-0.320921651
-0.345432147
-0.349302226
-0.341562069
-0.355752356
-0.340272043
-0.345432147
-0.333821912
-0.358332409
-0.372522696
-0.37123267
-0.3480122
-0.353172304
-0.366072565
-0.378972827
-0.391873088
-0.380262853
-0.369942644
-0.369942644
-0.391873088
-0.372522696
-0.369942644
-0.366072565
-0.3776828
-0.391873088
-0.395743166
-0.41122348
-0.413803532
-0.378972827
-0.372522696
-0.375102748
-0.381552879
-0.399613244
-0.395743166
-0.397033192
-0.368652618
-0.376392774
-0.39445314
-0.425413767
-0.404773349
-0.385422957
-0.3480122
-0.342852095
-0.360912461
-0.390583062
-0.385422957
-0.363492513
-0.349302226
-0.337691991
-0.332531886
-0.326081756
-0.350592252
-0.3480122
-0.364782539
-0.349302226
-0.310601442
-0.326081756
-0.355752356
-0.351882278
-0.31447152
-0.302861285
-0.324791729
-0.298991207
-0.266740554
-0.296411155
-0.292541076
-0.282220867
-0.280930841
-0.264160502
-0.243520084
-0.24481011
-0.22803977
-0.22158964
-0.216429535
-0.233199875
-0.213849483
-0.208689379
-0.190629013
-0.189338987
-0.19836917
-0.199659196
-0.188048961
-0.155798308
-0.106777315
-0.102907237
-0.160958412
-0.190629013
-0.155798308
-0.145478099
-0.157088334
-0.128707759
-0.083556845
-0.11193742
-0.153218255
-0.148058151
-0.109357367
-0.110647393
-0.106777315
-0.117097524
-0.102907237
-0.105487289
-0.097747132
-0.101617211
-0.096457106
-0.07839674
-0.061626401
-0.044856061
-0.050016166
-0.060336375
-0.07194661
-0.066786505
-0.052596218
-0.061626401
-0.092587028
-0.074526662
-0.047436113
0.004164931
-0.006155278
-0.029375748
-0.030665774
-0.026795696
-0.026795696
-0.030665774
-0.030665774
-0.040985983
-0.029375748
0.00803501
0.017065193
0.015775166
0.010615062
0.010615062
0.001584879
0.017065193
0.010615062
0.004164931
-0.012605408
-0.003575225
0.013195114
0.01448514
0.017065193
0.038995637
0.049315846
0.041575689
0.033835532
0.051895898
0.045445767
0.009325036
-0.00873533
0.018355219
0.059636055
0.078986446
0.055765976
0.045445767
0.042865715
0.063506133
0.084146551
0.055765976
0.022225297
-0.000995173
-0.013895434
-0.020345565
-0.012605408
0.010615062
0.011905088
0.037705611
0.037705611
0.009325036
0.005454957
0.004164931
0.026095375
0.033835532
0.022225297
0.035125558
0.018355219
0.00803501
0.063506133
0.066086185
0.029965454
0.006744984
0.032545506
0.076406394
0.07769642
0.064796159
0.060926081
0.033835532
0.017065193
0.032545506
0.041575689
0.05447595
0.058346028
0.067376211
0.067376211
0.040285663
0.023515323
0.059636055
0.108657047
0.13445757
0.108657047
0.095756786
0.07769642
0.057056002
0.05447595
0.073826342
0.113817152
0.131877517
0.122847334
0.116397204
0.128007439
0.139617674
0.135747596
0.099626864
0.109947073
0.1409077
0.131877517
0.128007439
0.130587491
0.11768723
0.104786969
0.108657047
0.118977256
0.121557308
0.118977256
0.113817152
0.09446676
0.051895898
0.088016629
0.121557308
0.126717413
0.121557308
0.115107178
0.085436577
0.053185924
0.060926081
0.07769642
0.107367021
0.128007439
0.106076995
0.122847334
0.112527126
0.05447595
0.075116368
0.081566499
0.091886708
0.084146551
0.086726603
0.075116368
0.072536316
0.072536316
0.069956264
0.049315846
0.072536316
0.084146551
0.051895898
0.011905088
0.037705611
0.042865715
0.066086185
0.07124629
0.05447595
0.060926081
0.055765976
0.020935271
0.005454957
0.029965454
0.05447595
0.050605872
0.033835532
0.055765976
0.062216107
0.072536316
0.049315846
0.010615062
0.00803501
0.024805349
0.006744984
0.015775166
0.020935271
0.011905088
0.015775166
0.022225297
0.023515323
0.038995637
0.018355219
0.019645245
0.028675428
0.053185924
0.078986446
0.040285663
0.038995637
0.055765976
0.075116368
0.073826342
0.063506133
0.063506133
0.059636055
0.055765976
0.050605872
0.055765976
0.044155741
0.033835532
0.05447595
0.089306655
0.086726603
0.033835532
0.028675428
0.022225297
-0.010025356
-0.006155278
0.013195114
0.03125548
0.048025819
0.045445767
0.022225297
0.03125548
0.060926081
0.044155741
0.017065193
-0.00873533
-0.040985983
-0.060336375
-0.034535852
0.000294853
0.017065193
0.010615062
-0.016475487
-0.012605408
-0.004865251
-0.029375748
-0.04872614
-0.075816688
-0.088716949
-0.074526662
-0.065496479
-0.062916427
-0.057756322
-0.065496479
-0.064206453
-0.100327184
-0.099037158
-0.11193742
-0.113227446
-0.124837681
-0.129997785
-0.120967602
-0.140317994
-0.176438726
-0.173858673
-0.191919039
-0.2048193
-0.200949222
-0.173858673
-0.179018778
-0.207399352
-0.220299614
-0.270610632
-0.322211677
-0.319631625
-0.309311416
-0.315761547
-0.329951834
-0.332531886
-0.329951834
-0.35446233
-0.408643427
-0.460244472
-0.489915073
-0.482174916
-0.498945256
-0.547966248
-0.571186719
-0.613757581
-0.613757581
-0.661488547
-0.6937392
-0.709219513
-0.736310062
-0.760820558
-0.79694129
-0.811131577
-0.894983275
-0.916913719
-0.927233928
-0.940134189
-0.959484581
-0.974964894
-1.012375652
-1.034306096
-1.052366462
-1.074296906
-1.094937324
-1.131058055
-1.160728656
-1.156858577
-1.138798212
-1.136218159
-1.143958316
-1.134928133
-1.155568551
-1.164598734
-1.16588876
-1.187819204
-1.172338891
-1.146538368
-1.137508186
-1.146538368
-1.146538368
-1.140088238
-1.118157794
-1.103967506
-1.088487193
-1.057526566
-1.051076435
-1.078166984
-1.131058055
-1.109127611
-1.054946514
-1.014955704
-0.968514764
-0.967224738
-0.981415025
-0.967224738
-0.941424215
-0.92336385
-0.922073823
-0.893693249
-0.88982317
-0.878212935
-0.86015257
-0.829191943
-0.821451786
-0.836932099
-0.821451786
-0.776300872
-0.727279879
-0.698899304
-0.683418991
-0.683418991
-0.675678834
-0.642138155
-0.620207711
-0.600857319
-0.556996431
-0.549256274
-0.56086651
-0.510555491
-0.456374394
-0.407353401
-0.408643427
-0.41122348
-0.404773349
-0.399613244
-0.367362591
-0.360912461
-0.369942644
-0.35446233
-0.338982017
-0.315761547
-0.293831103
-0.243520084
-0.243520084
-0.255130319
-0.260290423
-0.231909849
-0.215139509
-0.199659196
-0.2048193
-0.191919039
-0.169988595
-0.16482849
-0.132577837
-0.093877054
-0.106777315
-0.145478099
-0.123547655
-0.122257628
-0.11838755
-0.119677576
-0.122257628
-0.091297002
-0.088716949
-0.108067341
-0.080976793
-0.060336375
-0.073236636
-0.106777315
-0.126127707
-0.139027968
-0.139027968
-0.139027968
-0.160958412
-0.115807498
-0.082266819
-0.069366558
-0.068076531
-0.07839674
-0.0319558
0.010615062
0.033835532
0.064796159
0.115107178
0.169288275
0.26733026
0.366662271
0.413103212
0.432453603
0.477604518
0.598866973
0.681428645
0.729159611
0.749800029
0.818171414
0.892992929
0.935563791
0.95233413
1.03231575
1.100687134
1.10197716
1.086496847
1.098107082
1.129067709
1.129067709
1.135517839
1.167768492
1.162608388
1.134227813
1.086496847
1.06198635
1.050376115
0.993614966
0.921373503
0.82591157
0.776890578
0.705939141
0.647887966
0.58338666
0.517595327
0.455674074
0.411813186
0.348601906
0.246689842
0.160258092
0.111237099
0.073826342
0.07124629
0.073826342
0.05447595
0.046735793
0.067376211
0.078986446
0.093176734
0.095756786
0.130587491
0.158968066
0.202828954
0.24410979
0.268620286
0.266040234
0.308611096
0.356342062
0.40020295
0.406653081
0.431163577
0.48018457
0.487924727
0.472444413
0.490504779
0.493084831
0.485344674
0.530495589
0.547265928
0.495664883
0.495664883
0.508565145
0.52662551
0.558876163
0.539525772
0.512435223
0.531785615
0.525335484
0.517595327
0.529205563
0.52662551
0.553716059
0.580806607
0.564036268
0.556296111
0.552426033
0.557586137
0.578226555
0.574356477
0.576936529
0.569196372
0.584676686
0.580806607
0.596286921
0.578226555
0.545975902
0.54984598
0.555006085
0.551136007
0.582096634
0.587256738
0.570486398
0.564036268
0.531785615
0.502115014
0.512435223
0.530495589
0.531785615
0.54984598
0.548555954
0.507275118
0.486634701
0.489214753
0.513725249
0.522755432
0.529205563
0.531785615
0.557586137
0.548555954
0.552426033
0.518885354
0.489214753
0.498244936
0.511145197
0.547265928
0.570486398
0.533075641
0.552426033
0.560166189
0.54339585
0.560166189
0.588546764
0.556296111
0.535655693
0.558876163
0.584676686
0.578226555
0.598866973
0.618217365
0.614347287
0.632407652
0.638857783
0.647887966
0.651758044
0.662078253
0.659498201
0.655628122
0.687878775
0.723999507
0.709809219
0.713679298
0.75625016
0.75625016
0.707229167
0.73947982
0.769150421
0.760120238
0.787210787
0.832361701
0.854292145
0.863322328
0.863322328
0.859452249
0.874932563
0.885252772
0.883962746
0.911053294
0.948464052
0.962654339
0.972974548
0.983294757
0.9755546
0.994904992
0.993614966
0.949754078
0.974264574
1.01554541
1.052956168
1.050376115
1.005225201
1.002645149
1.006515227
0.991034914
0.991034914
1.014255384
1.011675332
0.997485044
1.012965358
1.006515227
1.023285567
1.018125462
0.982004731
0.948464052
0.966524418
0.970394496
0.960074287
0.983294757
0.9755546
0.947174026
0.907183216
0.862032302
0.81946144
0.792370891
0.791080865
0.769150421
0.745929951
0.751090055
0.75625016
0.66981841
0.61305726
0.587256738
0.593706869
0.555006085
0.513725249
0.471154387
0.48018457
0.493084831
0.459544152
0.420843368
0.388592715
0.358922115
0.339571723
0.329251514
0.30732107
0.249269894
0.231209529
0.213149163
0.197668849
0.18089851
0.151227909
0.124137361
0.106076995
0.089306655
0.059636055
0.041575689
0.067376211
0.073826342
0.036415584
-0.021635591
-0.037115905
-0.033245826
-0.020345565
-0.038405931
-0.070656584
-0.077106714
-0.106777315
-0.123547655
-0.105487289
-0.132577837
-0.128707759
-0.171278621
-0.217719561
-0.229329797
-0.222879666
-0.212559457
-0.237069953
-0.271900658
-0.304151312
-0.317051573
-0.313181494
-0.30802139
-0.342852095
-0.3776828
-0.409933453
-0.407353401
-0.407353401
-0.44089408
-0.447344211
-0.43444395
-0.484754968
-0.523455752
-0.501525308
-0.506685412
-0.568606666
-0.606017424
-0.589247084
-0.573766771
-0.563446562
-0.56731664
-0.613757581
-0.651168338
-0.679548913
-0.671808756
-0.660198521
-0.680838939
-0.680838939
-0.700189331
-0.736310062
-0.762110584
-0.75695048
-0.746630271
-0.768560715
-0.760820558
-0.786621081
-0.80339142
-0.799521342
-0.762110584
-0.791781185
-0.827901917
-0.852412413
-0.856282491
-0.840802178
-0.8666027
-0.838222126
-0.842092204
-0.8666027
-0.865312674
-0.838222126
-0.862732622
-0.86015257
-0.854992465
-0.905303484
-0.894983275
-0.891113196
-0.916913719
-0.900143379
-0.857572517
-0.879502961
-0.922073823
-0.937554137
-0.907883536
-0.909173562
-0.92336385
-0.936264111
-0.933684058
-0.931104006
-0.932394032
-0.940134189
-0.954324476
-0.945294294
-0.920783797
-0.902723432
-0.901433405
-0.927233928
-0.937554137
-0.924653876
-0.919493771
-0.925943902
-0.92981398
-0.95303445
-0.934974085
-0.919493771
-0.927233928
-0.934974085
-0.913043641
-0.905303484
-0.932394032
-0.944004267
-0.95303445
-0.931104006
-0.898853353
-0.884663066
-0.885953092
-0.878212935
-0.862732622
-0.862732622
-0.875632883
-0.878212935
-0.854992465
-0.821451786
-0.842092204
-0.833062021
-0.858862543
-0.873052831
-0.86015257
-0.862732622
-0.818871734
-0.782751002
-0.82661189
-0.842092204
-0.848542335
-0.829191943
-0.822741812
-0.831771995
-0.833062021
-0.817581708
-0.787911107
-0.802101394
-0.824031838
-0.799521342
-0.794361237
-0.816291681
-0.827901917
-0.791781185
-0.782751002
-0.781460976
-0.77372082
-0.77372082
-0.808551525
-0.82661189
-0.787911107
-0.763400611
-0.758240506
-0.765980663
-0.776300872
-0.776300872
-0.741470166
-0.729859931
-0.701479357
-0.720829749
-0.758240506
-0.749210323
-0.722119775
-0.731149958
-0.735020036
-0.745340245
-0.67696886
-0.665358625
-0.6937392
-0.688579096
-0.705349435
-0.729859931
-0.73373001
-0.700189331
-0.685999043
-0.696319252
-0.688579096
-0.684709017
-0.671808756
-0.664068599
-0.64729826
-0.616337633
-0.636978051
-0.669228704
-0.657618469
-0.644718207
-0.638268077
-0.644718207
-0.635688025
-0.622787763
-0.622787763
-0.631817946
-0.633107972
-0.622787763
-0.616337633
-0.651168338
-0.625367816
-0.63052792
-0.640848129
-0.664068599
-0.626657842
-0.58408698
-0.594407189
-0.625367816
-0.622787763
-0.603437372
-0.554416379
-0.542806144
-0.545386196
-0.542806144
-0.554416379
-0.56086651
-0.559576483
-0.546676222
-0.498945256
-0.498945256
-0.518295648
-0.515715595
-0.492495125
-0.495075177
-0.491205099
-0.506685412
-0.492495125
-0.484754968
-0.493785151
-0.492495125
-0.483464942
-0.482174916
-0.471854707
-0.488625047
-0.486044995
-0.482174916
-0.471854707
-0.475724786
-0.501525308
-0.487335021
-0.48088489
-0.461534498
-0.447344211
-0.465404577
-0.470564681
-0.438314028
-0.421543689
-0.427993819
-0.430573871
-0.448634237
-0.465404577
-0.475724786
-0.461534498
-0.447344211
-0.43444395
-0.447344211
-0.471854707
-0.438314028
-0.397033192
-0.427993819
-0.429283845
-0.41767361
-0.429283845
-0.397033192
-0.358332409
-0.340272043
-0.372522696
-0.395743166
-0.342852095
-0.31447152
-0.340272043
-0.327371782
-0.297701181
-0.323501703
-0.35446233
-0.353172304
-0.320921651
-0.309311416
-0.337691991
-0.318341599
-0.324791729
-0.333821912
-0.300281233
-0.292541076
-0.30802139
-0.315761547
-0.31447152
-0.287380972
-0.29125105
-0.293831103
-0.274480711
-0.289961024
-0.30802139
-0.320921651
-0.306731364
-0.315761547
-0.311891468
-0.319631625
-0.345432147
-0.326081756
-0.319631625
-0.318341599
-0.324791729
-0.323501703
-0.329951834
-0.346722174
-0.327371782
-0.298991207
-0.304151312
-0.287380972
-0.296411155
-0.313181494
-0.271900658
-0.257710371
-0.288670998
-0.298991207
-0.289961024
-0.278350789
-0.255130319
-0.265450528
-0.278350789
-0.283510894
-0.264160502
-0.288670998
-0.283510894
-0.24481011
-0.249970214
-0.266740554
-0.279640815
-0.265450528
-0.266740554
-0.229329797
-0.219009588
-0.234489901
-0.266740554
-0.255130319
-0.224169692
-0.248680188
-0.237069953
-0.215139509
-0.206109326
-0.206109326
-0.175148699
-0.155798308
-0.2048193
-0.222879666
-0.206109326
-0.2048193
-0.212559457
-0.177728752
-0.154508281
-0.151928229
-0.115807498
-0.120967602
-0.168698569
-0.195789117
-0.179018778
-0.189338987
-0.162248438
-0.136447916
-0.133867864
-0.179018778
-0.209979405
-0.19836917
-0.157088334
-0.163538464
-0.168698569
-0.163538464
-0.173858673
-0.163538464
-0.188048961
-0.167408543
-0.160958412
-0.182888856
-0.176438726
-0.140317994
-0.132577837
-0.129997785
-0.140317994
-0.124837681
-0.133867864
-0.115807498
-0.091297002
-0.086136897
-0.074526662
-0.056466296
-0.061626401
-0.077106714
-0.035825878
-0.007445304
-0.037115905
-0.044856061
-0.011315382
0.011905088
0.020935271
0.042865715
0.072536316
0.085436577
0.059636055
0.10091689
0.130587491
0.122847334
0.122847334
0.133167543
0.169288275
0.18089851
0.197668849
0.24410979
0.247979868
0.260880129
0.258300077
0.257010051
0.277650469
0.311191148
0.324091409
0.338281697
0.349891932
0.325381435
0.343441801
0.360212141
0.356342062
0.365372245
0.386012663
0.410523159
0.44019376
0.426003473
0.424713447
0.395042846
0.395042846
0.436323682
0.4569641
0.450513969
0.453094021
0.46341423
0.478894544
0.493084831
0.494374857
0.502115014
0.536945719
0.540815798
0.505985092
0.508565145
0.529205563
0.527915536
0.536945719
0.569196372
0.571776425
0.564036268
0.556296111
0.545975902
0.576936529
0.580806607
0.579516581
0.593706869
0.561456216
0.536945719
0.573066451
0.578226555
0.571776425
0.556296111
0.562746242
0.591126816
0.567906346
0.529205563
0.515015275
0.525335484
0.499534962
0.491794805
0.509855171
0.481474596
0.459544152
0.46341423
0.451803995
0.436323682
0.424713447
0.419553342
0.414393238
0.435033656
0.427293499
0.414393238
0.402783003
0.35376201
0.340861749
0.364082219
0.395042846
0.392462794
0.404073029
0.411813186
0.431163577
0.484054648
0.535655693
0.548555954
0.605317104
0.673688488
0.749800029
0.82591157
0.903313138
0.943303947
1.014255384
1.058116272
1.126487656
1.193569015
1.232269798
1.289030948
1.359982384
1.463184474
1.556066355
1.562516485
1.519945623
1.490275023
1.474794709
1.494145101
1.516075545
1.547036172
1.556066355
1.469634605
1.41803356
1.397393142
1.372882646
1.286450895
1.184538832
1.109717317
1.040055906
0.974264574
0.840101858
0.707229167
0.641437835
0.601447025
0.564036268
0.471154387
0.386012663
0.298290887
0.207989058
0.130587491
0.084146551
0.085436577
0.089306655
0.058346028
0.010615062
0.01448514
0.011905088
0.037705611
0.036415584
0.017065193
0.042865715
0.07769642
0.103496943
0.10091689
0.091886708
0.07769642
0.113817152
0.149937883
0.166708223
0.166708223
0.135747596
0.103496943
0.097046812
0.120267282
0.149937883
0.116397204
0.098336838
0.075116368
0.075116368
0.086726603
0.067376211
0.076406394
0.069956264
0.073826342
0.10091689
0.112527126
0.068666237
0.036415584
0.093176734
0.124137361
0.155097988
0.166708223
0.152517935
0.165418196
0.187348641
0.177028432
0.178318458
0.197668849
0.22733945
0.260880129
0.266040234
0.273780391
0.241529738
0.241529738
0.272490364
0.298290887
0.289260704
0.266040234
0.29055073
0.293130782
0.291840756
0.278940495
0.275070417
0.26733026
0.258300077
0.266040234
0.280230521
0.280230521
0.276360443
0.263460182
0.258300077
0.268620286
0.254429999
0.236369633
0.25055992
0.260880129
0.241529738
0.238949685
0.238949685
0.235079607
0.231209529
0.238949685
0.241529738
0.222179346
0.210569111
0.186058614
0.195088797
0.189928693
0.161548118
0.175738405
0.153807961
0.142197726
0.1409077
0.130587491
0.138327648
0.143487752
0.098336838
0.055765976
0.055765976
0.051895898
0.035125558
-0.000995173
0.001584879
-0.016475487
-0.017765513
0.017065193
-0.003575225
-0.064206453
-0.074526662
-0.060336375
-0.060336375
-0.05517627
-0.040985983
-0.062916427
-0.077106714
-0.070656584
-0.088716949
-0.109357367
-0.113227446
-0.133867864
-0.123547655
-0.123547655
-0.13515789
-0.119677576
-0.123547655
-0.129997785
-0.148058151
-0.157088334
-0.160958412
-0.148058151
-0.148058151
-0.146768125
-0.157088334
-0.155798308
-0.140317994
-0.148058151
-0.166118517
-0.169988595
-0.149348177
-0.151928229
-0.168698569
-0.163538464
-0.171278621
-0.182888856
-0.171278621
-0.15837836
-0.168698569
-0.148058151
-0.14160802
-0.151928229
-0.157088334
-0.139027968
-0.11838755
-0.132577837
-0.13515789
-0.126127707
-0.137737942
-0.122257628
-0.11838755
-0.117097524
-0.115807498
-0.175148699
-0.203529274
-0.179018778
-0.137737942
-0.132577837
-0.122257628
-0.109357367
-0.162248438
-0.194499091
-0.2048193
-0.2048193
-0.207399352
-0.212559457
-0.222879666
-0.209979405
-0.22803977
-0.230619823
-0.251260241
-0.256420345
-0.237069953
-0.246100136
-0.288670998
-0.300281233
-0.274480711
-0.260290423
-0.26158045
-0.288670998
-0.279640815
-0.283510894
-0.279640815
-0.300281233
-0.279640815
-0.278350789
-0.329951834
-0.338982017
-0.322211677
-0.340272043
-0.358332409
-0.359622435
-0.333821912
-0.324791729
-0.355752356
-0.369942644
-0.373812722
-0.391873088
-0.391873088
-0.364782539
-0.345432147
-0.333821912
-0.345432147
-0.350592252
-0.323501703
-0.349302226
-0.364782539
-0.372522696
-0.385422957
-0.363492513
-0.337691991
-0.351882278
-0.373812722
-0.385422957
-0.386712983
-0.375102748
-0.336401965
-0.30802139
-0.311891468
-0.326081756
-0.305441338
-0.31447152
-0.322211677
-0.304151312
-0.297701181
-0.313181494
-0.292541076
-0.318341599
-0.315761547
-0.270610632
-0.251260241
-0.271900658
-0.283510894
-0.275770737
-0.264160502
-0.287380972
-0.287380972
-0.350592252
-0.340272043
-0.317051573
-0.289961024
-0.288670998
-0.277060763
-0.287380972
-0.301571259
-0.298991207
-0.288670998
-0.280930841
-0.323501703
-0.326081756
-0.350592252
-0.346722174
-0.333821912
-0.329951834
-0.315761547
-0.319631625
-0.3480122
-0.349302226
-0.350592252
-0.322211677
-0.304151312
-0.322211677
-0.358332409
-0.367362591
-0.368652618
-0.351882278
-0.3480122
-0.349302226
-0.385422957
-0.381552879
-0.353172304
-0.30802139
-0.320921651
-0.335111938
-0.3480122
-0.364782539
-0.360912461
-0.351882278
-0.332531886
-0.333821912
-0.344142121
-0.355752356
-0.344142121
-0.344142121
-0.333821912
-0.300281233
-0.30802139
-0.297701181
-0.304151312
-0.305441338
-0.278350789
-0.320921651
-0.353172304
-0.301571259
-0.29125105
-0.31447152
-0.313181494
-0.310601442
-0.279640815
-0.264160502
-0.260290423
-0.277060763
-0.293831103
-0.302861285
-0.293831103
-0.296411155
-0.297701181
-0.293831103
-0.300281233
-0.296411155
-0.275770737
-0.216429535
-0.211269431
-0.270610632
-0.274480711
-0.248680188
-0.224169692
-0.224169692
-0.213849483
-0.211269431
-0.160958412
-0.137737942
-0.13515789
-0.179018778
-0.191919039
-0.169988595
-0.106777315
-0.062916427
-0.07839674
-0.109357367
-0.115807498
-0.120967602
-0.099037158
-0.035825878
-0.040985983
-0.046146087
-0.042276009
-0.017765513
-0.024215643
-0.024215643
-0.00873533
0.022225297
0.041575689
0.068666237
0.072536316
0.068666237
0.081566499
0.07124629
0.091886708
0.13445757
0.138327648
0.138327648
0.173158353
0.193798771
0.187348641
0.218309267
0.22088932
0.170578301
0.129297465
0.174448379
0.175738405
0.18089851
0.183478562
0.18089851
0.167998249
0.192508745
0.219599294
0.200248902
0.195088797
0.16412817
0.155097988
0.166708223
0.209279085
0.25055992
0.237659659
0.229919503
0.254429999
0.253139973
0.262170156
0.257010051
0.269910312
0.260880129
0.251849947
0.249269894
0.22088932
0.247979868
0.235079607
0.217019241
0.179608484
0.193798771
0.217019241
0.189928693
0.16412817
0.187348641
0.200248902
0.187348641
0.143487752
0.135747596
0.152517935
0.138327648
0.103496943
0.118977256
0.11768723
0.086726603
0.073826342
0.073826342
0.037705611
0.040285663
0.037705611
0.072536316
0.075116368
0.076406394
0.057056002
0.029965454
0.03125548
0.051895898
0.040285663
0.005454957
0.01448514
0.010615062
0.01448514
0.017065193
0.026095375
-0.012605408
-0.034535852
-0.037115905
-0.046146087
-0.052596218
-0.030665774
-0.035825878
-0.059046349
-0.077106714
-0.083556845
-0.0319558
-0.003575225
-0.019055539
0.001584879
-0.00873533
-0.012605408
-0.020345565
-0.006155278
0.011905088
0.006744984
-0.006155278
-0.024215643
-0.029375748
0.026095375
0.044155741
-0.003575225
-0.0319558
-0.026795696
-0.034535852
-0.028085722
-0.007445304
-0.010025356
-0.021635591
-0.047436113
-0.026795696
-0.013895434
-0.01518546
-0.052596218
-0.077106714
-0.061626401
-0.051306192
-0.075816688
-0.068076531
-0.061626401
-0.04872614
-0.0319558
-0.028085722
-0.077106714
-0.093877054
-0.087426923
-0.075816688
-0.075816688
-0.084846871
-0.066786505
-0.096457106
-0.087426923
-0.086136897
-0.104197263
-0.114517472
-0.149348177
-0.159668386
-0.127417733
-0.102907237
-0.11838755
-0.100327184
-0.090006975
-0.106777315
-0.105487289
-0.128707759
-0.13515789
-0.137737942
-0.11838755
-0.092587028
-0.077106714
-0.07194661
-0.07839674
-0.064206453
-0.033245826
-0.035825878
-0.039695957
-0.043566035
-0.052596218
-0.050016166
-0.043566035
-0.029375748
0.013195114
0.018355219
0.001584879
0.029965454
0.018355219
0.036415584
0.066086185
0.033835532
0.005454957
0.023515323
0.048025819
0.067376211
0.080276472
0.049315846
0.064796159
0.078986446
0.093176734
0.10091689
0.102206917
0.116397204
0.116397204
0.07124629
0.049315846
0.07769642
0.129297465
0.146067805
0.13445757
0.126717413
0.146067805
0.166708223
0.16412817
0.143487752
0.152517935
0.171868327
0.184768588
0.196378823
0.171868327
0.192508745
0.201538928
0.195088797
0.200248902
0.184768588
0.198958876
0.231209529
0.258300077
0.253139973
0.236369633
0.235079607
0.241529738
0.253139973
0.255720025
0.214439189
0.214439189
0.22733945
0.245399816
0.255720025
0.253139973
0.232499555
0.226049424
0.229919503
0.179608484
0.15767804
0.161548118
0.138327648
0.126717413
0.122847334
0.104786969
0.099626864
0.097046812
0.058346028
0.060926081
0.066086185
0.045445767
0.037705611
0.060926081
0.051895898
0.041575689
0.018355219
0.032545506
0.059636055
0.07769642
0.048025819
0.048025819
0.055765976
0.018355219
0.019645245
0.066086185
0.085436577
0.098336838
0.091886708
0.080276472
0.073826342
0.059636055
0.063506133
0.090596681
0.068666237
0.058346028
0.088016629
0.093176734
0.060926081
0.050605872
0.073826342
0.075116368
0.044155741
0.018355219
0.035125558
0.050605872
0.057056002
0.036415584
0.036415584
0.051895898
0.038995637
0.046735793
0.055765976
0.044155741
0.053185924
0.068666237
0.068666237
0.055765976
0.023515323
0.005454957
0.015775166
0.033835532
0.022225297
0.027385402
0.018355219
-0.00873533
-0.025505669
-0.024215643
-0.030665774
-0.037115905
-0.042276009
-0.0319558
-0.016475487
-0.003575225
0.002874905
0.027385402
0.057056002
0.085436577
0.128007439
0.174448379
0.251849947
0.320221331
0.340861749
0.37053235
0.450513969
0.512435223
0.593706869
0.620797417
0.711099246
0.734319716
0.797530996
0.872352511
0.923953556
0.987164835
1.063276377
1.099397108
1.074886612
1.059406298
1.063276377
1.085206821
1.126487656
1.172928597
1.193569015
1.126487656
1.103267186
1.100687134
1.067146455
0.982004731
0.90589319
0.836231779
0.761410264
0.680138619
0.605317104
0.513725249
0.428583525
0.365372245
0.329251514
0.260880129
0.162838144
0.057056002
-0.028085722
-0.092587028
-0.15837836
-0.149348177
-0.148058151
-0.169988595
-0.182888856
-0.173858673
-0.171278621
-0.157088334
-0.142898046
-0.149348177
-0.157088334
-0.166118517
-0.16482849
-0.123547655
-0.077106714
-0.017765513
-0.030665774
-0.047436113
-0.047436113
-0.035825878
-0.052596218
-0.082266819
-0.060336375
-0.059046349
-0.044856061
-0.044856061
-0.083556845
-0.084846871
-0.084846871
-0.082266819
-0.07194661
-0.070656584
-0.102907237
-0.100327184
-0.09516708
-0.064206453
-0.088716949
-0.124837681
-0.124837681
-0.102907237
-0.080976793
-0.077106714
-0.074526662
-0.115807498
-0.113227446
-0.117097524
-0.114517472
-0.120967602
-0.115807498
-0.115807498
-0.119677576
-0.114517472
-0.108067341
-0.117097524
-0.126127707
-0.096457106
-0.097747132
-0.110647393
-0.123547655
-0.139027968
-0.136447916
-0.106777315
-0.093877054
-0.108067341
-0.104197263
-0.075816688
-0.07839674
-0.087426923
-0.082266819
-0.069366558
-0.066786505
-0.093877054
-0.074526662
-0.052596218
-0.04872614
-0.025505669
-0.025505669
-0.035825878
-0.034535852
-0.007445304
0.009325036
-0.004865251
-0.026795696
-0.017765513
-0.034535852
-0.043566035
-0.024215643
0.017065193
0.019645245
0.006744984
-0.011315382
-0.01518546
-0.010025356
-0.013895434
0.002874905
0.004164931
0.01448514
0.018355219
0.020935271
0.019645245
0.023515323
0.046735793
0.053185924
0.045445767
0.049315846
0.067376211
0.053185924
0.058346028
0.085436577
0.075116368
0.051895898
0.049315846
0.051895898
0.068666237
0.081566499
0.067376211
0.033835532
0.018355219
0.022225297
0.026095375
0.035125558
0.066086185
0.063506133
0.066086185
0.057056002
0.027385402
0.011905088
0.041575689
0.073826342
0.078986446
0.057056002
0.046735793
0.042865715
0.037705611
0.057056002
0.051895898
0.024805349
0.048025819
0.046735793
0.010615062
0.004164931
0.015775166
0.013195114
0.002874905
0.036415584
0.03125548
-0.000995173
-0.012605408
0.013195114
0.01448514
-0.012605408
-0.012605408
-0.022925617
0.00803501
0.049315846
0.055765976
0.044155741
0.053185924
0.027385402
0.017065193
0.018355219
0.060926081
0.082856525
0.059636055
0.044155741
0.095756786
0.095756786
0.080276472
0.062216107
0.050605872
0.081566499
0.075116368
0.038995637
0.050605872
0.053185924
0.035125558
0.046735793
0.078986446
0.091886708
0.084146551
0.090596681
0.086726603
0.089306655
0.089306655
0.081566499
0.082856525
0.089306655
0.099626864
0.121557308
0.118977256
0.111237099
0.111237099
0.097046812
0.089306655
0.104786969
0.108657047
0.099626864
0.120267282
0.115107178
0.104786969
0.129297465
0.146067805
0.142197726
0.120267282
0.091886708
0.118977256
0.107367021
0.133167543
0.135747596
0.112527126
0.120267282
0.137037622
0.144777779
0.116397204
0.102206917
0.080276472
0.072536316
0.088016629
0.122847334
0.138327648
0.130587491
0.112527126
0.088016629
0.062216107
0.07769642
0.088016629
0.07769642
0.099626864
0.067376211
0.063506133
0.060926081
0.051895898
0.042865715
0.049315846
0.046735793
0.057056002
0.064796159
0.067376211
0.027385402
0.020935271
0.03125548
0.038995637
0.020935271
-0.029375748
-0.028085722
-0.007445304
-0.025505669
-0.034535852
-0.057756322
-0.047436113
-0.04872614
-0.073236636
-0.101617211
-0.128707759
-0.11193742
-0.117097524
-0.110647393
-0.11193742
-0.115807498
-0.11838755
-0.13515789
-0.136447916
-0.157088334
-0.166118517
-0.148058151
-0.154508281
-0.184178882
-0.197079143
-0.169988595
-0.176438726
-0.176438726
-0.171278621
-0.16482849
-0.173858673
-0.172568647
-0.162248438
-0.171278621
-0.175148699
-0.169988595
-0.153218255
-0.149348177
-0.149348177
-0.150638203
-0.18159883
-0.176438726
-0.169988595
-0.162248438
-0.169988595
-0.185468908
-0.197079143
-0.186758935
-0.182888856
-0.188048961
-0.195789117
-0.16482849
-0.160958412
-0.177728752
-0.233199875
-0.247390162
-0.216429535
-0.207399352
-0.168698569
-0.14160802
-0.169988595
-0.179018778
-0.172568647
-0.168698569
-0.171278621
-0.180308804
-0.195789117
-0.203529274
-0.184178882
-0.168698569
-0.142898046
-0.106777315
-0.108067341
-0.14160802
-0.18159883
-0.145478099
-0.139027968
-0.120967602
-0.146768125
-0.136447916
-0.14160802
-0.149348177
-0.126127707
-0.117097524
-0.102907237
-0.11193742
-0.108067341
-0.108067341
-0.113227446
-0.136447916
-0.184178882
-0.129997785
-0.109357367
-0.115807498
-0.123547655
-0.132577837
-0.106777315
-0.091297002
-0.132577837
-0.142898046
-0.129997785
-0.102907237
-0.091297002
-0.087426923
-0.083556845
-0.090006975
-0.07194661
-0.086136897
-0.109357367
-0.109357367
-0.092587028
-0.093877054
-0.099037158
-0.083556845
-0.07839674
-0.086136897
-0.091297002
-0.131287811
-0.11193742
-0.090006975
-0.090006975
-0.083556845
-0.082266819
-0.073236636
-0.051306192
-0.053886244
-0.088716949
-0.07194661
-0.064206453
-0.05517627
-0.059046349
-0.057756322
-0.07194661
-0.05517627
-0.066786505
-0.093877054
-0.082266819
-0.070656584
-0.044856061
-0.050016166
-0.066786505
-0.068076531
-0.099037158
-0.11193742
-0.077106714
-0.046146087
-0.025505669
-0.021635591
-0.022925617
-0.035825878
-0.053886244
-0.00873533
-0.035825878
-0.059046349
-0.047436113
-0.022925617
-0.034535852
-0.019055539
-0.025505669
-0.024215643
-0.012605408
0.002874905
0.022225297
0.000294853
-0.057756322
-0.035825878
-0.010025356
-0.002285199
0.002874905
0.004164931
-0.00873533
-0.01518546
-0.021635591
-0.026795696
-0.038405931
-0.046146087
-0.034535852
-0.042276009
-0.059046349
-0.05517627
-0.029375748
-0.052596218
-0.064206453
-0.029375748
-0.011315382
-0.00873533
-0.000995173
0.017065193
-0.007445304
-0.025505669
-0.052596218
-0.003575225
-0.000995173
0.01448514
0.027385402
0.05447595
0.053185924
0.011905088
-0.046146087
-0.060336375
-0.035825878
0.033835532
0.037705611
-0.003575225
-0.002285199
-0.004865251
0.004164931
0.005454957
-0.003575225
-0.01518546
-0.029375748
-0.016475487
0.006744984
0.038995637
0.006744984
-0.016475487
-0.007445304
0.010615062
0.00803501
0.029965454
0.037705611
0.064796159
0.041575689
0.032545506
0.035125558
0.067376211
0.041575689
0.019645245
0.027385402
0.062216107
0.05447595
0.033835532
0.022225297
0.017065193
0.03125548
0.020935271
0.009325036
-0.011315382
-0.004865251
0.001584879
0.011905088
0.044155741
0.024805349
-0.012605408
-0.029375748
-0.01518546
-0.025505669
-0.030665774
-0.000995173
0.029965454
0.049315846
0.046735793
-0.00873533
-0.024215643
-0.033245826
-0.028085722
0.005454957
0.010615062
0.006744984
0.022225297
0.020935271
-0.00873533
0.002874905
0.004164931
0.00803501
-0.013895434
-0.019055539
-0.021635591
0.005454957
0.026095375
0.020935271
-0.017765513
-0.020345565
-0.006155278
-0.012605408
-0.026795696
-0.016475487
-0.016475487
-0.024215643
-0.006155278
0.004164931
-0.013895434
-0.016475487
-0.01518546
-0.002285199
0.002874905
-0.007445304
-0.022925617
-0.030665774
-0.021635591
-0.012605408
-0.035825878
-0.039695957
-0.029375748
0.023515323
0.032545506
0.044155741
0.019645245
0.000294853
0.015775166
0.029965454
0.045445767
0.040285663
0.023515323
0.03125548
0.038995637
0.053185924
0.063506133
0.07769642
0.07124629
0.029965454
0.027385402
0.017065193
0.017065193
0.00803501
0.027385402
0.033835532
-0.020345565
-0.007445304
0.011905088
0.018355219
0.072536316
0.088016629
0.060926081
0.027385402
0.009325036
0.015775166
0.038995637
0.045445767
0.038995637
0.057056002
0.066086185
0.064796159
0.026095375
0.019645245
0.022225297
0.041575689
0.023515323
0.006744984
0.024805349
0.024805349
0.009325036
0.015775166
0.026095375
0.010615062
0.013195114
0.01448514
0.018355219
0.019645245
0.037705611
0.05447595
0.042865715
0.044155741
0.046735793
0.040285663
0.03125548
0.006744984
0.03125548
0.038995637
0.040285663
0.029965454
0.051895898
0.051895898
0.063506133
0.048025819
0.024805349
0.036415584
0.051895898
0.07769642
0.088016629
0.05447595
0.046735793
0.042865715
0.053185924
0.024805349
0.038995637
0.085436577
0.063506133
0.026095375
0.042865715
0.048025819
0.044155741
0.053185924
0.041575689
0.060926081
0.062216107
0.090596681
0.086726603
0.075116368
0.063506133
0.064796159
0.048025819
0.078986446
0.085436577
0.075116368
0.068666237
0.026095375
0.036415584
0.045445767
0.024805349
0.041575689
0.033835532
0.03125548
0.011905088
0.020935271
0.002874905
-0.011315382
0.042865715
0.057056002
-0.007445304
-0.028085722
-0.012605408
-0.016475487
-0.016475487
-0.012605408
-0.003575225
-0.021635591
-0.01518546
0.004164931
-0.002285199
-0.019055539
-0.043566035
-0.059046349
-0.065496479
-0.050016166
-0.056466296
-0.043566035
-0.024215643
-0.026795696
-0.040985983
-0.044856061
-0.056466296
-0.04872614
-0.080976793
-0.09516708
-0.087426923
-0.056466296
-0.024215643
-0.034535852
-0.050016166
-0.073236636
-0.083556845
-0.090006975
-0.069366558
-0.05517627
-0.040985983
-0.028085722
-0.021635591
-0.040985983
-0.057756322
-0.065496479
-0.043566035
-0.037115905
-0.035825878
-0.0319558
-0.019055539
-0.034535852
-0.044856061
-0.04872614
-0.082266819
-0.077106714
-0.04872614
-0.021635591
-0.038405931
-0.050016166
-0.033245826
-0.061626401
-0.09516708
-0.110647393
-0.11838755
-0.123547655
-0.11838755
-0.110647393
-0.119677576
-0.133867864
-0.123547655
-0.115807498
-0.051306192
-0.052596218
-0.061626401
-0.038405931
-0.025505669
0.005454957
0.015775166
0.057056002
0.16412817
0.255720025
0.321511357
0.37053235
0.424713447
0.504695066
0.56661632
0.596286921
0.668528384
0.738189794
0.76270029
0.822041492
0.863322328
0.926533608
0.963944365
1.010385306
1.025865619
0.998775071
1.025865619
1.049086089
1.06198635
1.074886612
1.021995541
0.984584783
0.970394496
0.967814444
0.930403686
0.859452249
0.76270029
0.664658305
0.610477208
0.542105824
0.459544152
0.369242324
0.282810573
0.207989058
0.13445757
0.033835532
-0.033245826
-0.059046349
-0.117097524
-0.213849483
-0.275770737
-0.305441338
-0.324791729
-0.309311416
-0.283510894
-0.273190685
-0.26158045
-0.257710371
-0.271900658
-0.287380972
-0.271900658
-0.226749744
-0.212559457
-0.197079143
-0.179018778
-0.215139509
-0.217719561
-0.199659196
-0.188048961
-0.191919039
-0.2048193
-0.177728752
-0.14160802
-0.154508281
-0.168698569
-0.189338987
-0.235779927
-0.208689379
-0.200949222
-0.194499091
-0.188048961
-0.182888856
-0.157088334
-0.139027968
-0.13515789
-0.146768125
-0.206109326
-0.22158964
-0.195789117
-0.16482849
-0.145478099
-0.150638203
-0.166118517
-0.15837836
-0.137737942
-0.142898046
-0.175148699
-0.168698569
-0.171278621
-0.194499091
-0.163538464
-0.168698569
-0.14160802
-0.101617211
-0.105487289
-0.126127707
-0.137737942
-0.166118517
-0.144188073
-0.136447916
-0.149348177
-0.127417733
-0.113227446
-0.146768125
-0.151928229
-0.140317994
-0.122257628
-0.114517472
-0.11193742
-0.093877054
-0.087426923
-0.113227446
-0.149348177
-0.146768125
-0.117097524
-0.097747132
-0.122257628
-0.115807498
-0.077106714
-0.057756322
-0.065496479
-0.106777315
-0.120967602
-0.131287811
-0.128707759
-0.105487289
-0.096457106
-0.079686766
-0.066786505
-0.075816688
-0.086136897
-0.101617211
-0.104197263
-0.091297002
-0.092587028
-0.07194661
-0.070656584
-0.061626401
-0.05517627
-0.082266819
-0.080976793
-0.079686766
-0.069366558
-0.064206453
-0.087426923
-0.068076531
-0.051306192
-0.042276009
-0.044856061
-0.059046349
-0.035825878
-0.00873533
-0.006155278
-0.043566035
-0.064206453
-0.037115905
-0.007445304
-0.028085722
-0.007445304
-0.003575225
-0.030665774
0.005454957
0.002874905
-0.024215643
-0.042276009
-0.04872614
-0.029375748
-0.030665774
-0.020345565
-0.022925617
-0.017765513
-0.00873533
-0.019055539
-0.025505669
-0.05517627
-0.056466296
-0.050016166
-0.069366558
-0.073236636
-0.020345565
0.022225297
0.011905088
-0.0319558
0.000294853
0.019645245
0.032545506
0.020935271
0.009325036
0.000294853
0.027385402
0.037705611
0.07124629
0.10091689
0.107367021
0.088016629
0.075116368
0.026095375
0.013195114
0.064796159
0.064796159
0.042865715
0.066086185
0.093176734
0.072536316
0.029965454
0.029965454
0.037705611
0.051895898
0.063506133
0.064796159
0.024805349
0.040285663
0.064796159
0.076406394
0.109947073
0.103496943
0.076406394
0.048025819
0.029965454
0.057056002
0.122847334
0.135747596
0.10091689
0.102206917
0.115107178
0.115107178
0.108657047
0.122847334
0.098336838
0.09446676
0.111237099
0.120267282
0.151227909
0.160258092
0.146067805
0.137037622
0.147357831
0.133167543
0.13445757
0.129297465
0.143487752
0.161548118
0.162838144
0.115107178
0.124137361
0.151227909
0.149937883
0.126717413
0.122847334
0.130587491
0.158968066
0.128007439
0.102206917
0.093176734
0.090596681
0.109947073
0.084146551
0.102206917
0.120267282
0.143487752
0.131877517
0.10091689
0.095756786
0.118977256
0.126717413
0.090596681
0.07124629
0.07124629
0.128007439
0.138327648
0.109947073
0.075116368
0.049315846
0.069956264
0.111237099
0.099626864
0.042865715
0.036415584
0.040285663
0.026095375
0.028675428
0.058346028
0.041575689
0.018355219
-0.030665774
-0.029375748
-0.029375748
-0.017765513
-0.00873533
-0.013895434
-0.033245826
-0.051306192
-0.057756322
-0.097747132
-0.114517472
-0.106777315
-0.086136897
-0.100327184
-0.099037158
-0.083556845
-0.062916427
-0.086136897
-0.124837681
-0.157088334
-0.182888856
-0.150638203
-0.117097524
-0.136447916
-0.18159883
-0.171278621
-0.131287811
-0.139027968
-0.180308804
-0.176438726
-0.172568647
-0.186758935
-0.189338987
-0.191919039
-0.219009588
-0.209979405
-0.19836917
-0.22803977
-0.233199875
-0.219009588
-0.188048961
-0.177728752
-0.216429535
-0.24481011
-0.266740554
-0.240940032
-0.219009588
-0.215139509
-0.211269431
-0.229329797
-0.253840293
-0.24481011
-0.212559457
-0.194499091
-0.184178882
-0.206109326
-0.207399352
-0.213849483
-0.203529274
-0.209979405
-0.202239248
-0.219009588
-0.202239248
-0.200949222
-0.190629013
-0.193209065
-0.195789117
-0.180308804
-0.185468908
-0.200949222
-0.195789117
-0.226749744
-0.242230058
-0.211269431
-0.186758935
-0.171278621
-0.15837836
-0.172568647
-0.184178882
-0.199659196
-0.18159883
-0.175148699
-0.195789117
-0.166118517
-0.14160802
-0.133867864
-0.148058151
-0.144188073
-0.150638203
-0.122257628
-0.100327184
-0.11193742
-0.151928229
-0.140317994
-0.105487289
-0.100327184
-0.114517472
-0.15837836
-0.127417733
-0.104197263
-0.11838755
-0.114517472
-0.086136897
-0.077106714
-0.100327184
-0.115807498
-0.119677576
-0.132577837
-0.109357367
-0.086136897
-0.064206453
-0.069366558
-0.106777315
-0.092587028
-0.087426923
-0.096457106
-0.093877054
-0.080976793
-0.060336375
-0.07194661
-0.082266819
-0.07194661
-0.082266819
-0.088716949
-0.096457106
-0.075816688
-0.050016166
-0.059046349
-0.097747132
-0.13515789
-0.091297002
-0.065496479
-0.079686766
-0.082266819
-0.105487289
-0.11193742
-0.090006975
-0.060336375
-0.07839674
-0.128707759
-0.131287811
-0.114517472
-0.108067341
-0.097747132
-0.079686766
-0.075816688
-0.073236636
-0.068076531
-0.082266819
-0.084846871
-0.077106714
-0.04872614
-0.044856061
-0.108067341
-0.136447916
-0.09516708
-0.069366558
-0.062916427
-0.065496479
-0.062916427
-0.07839674
-0.090006975
-0.083556845
-0.069366558
-0.061626401
-0.056466296
-0.070656584
-0.07839674
-0.066786505
-0.052596218
-0.038405931
-0.056466296
-0.122257628
-0.120967602
-0.092587028
-0.039695957
-0.050016166
-0.086136897
-0.105487289
-0.117097524
-0.097747132
-0.082266819
-0.061626401
-0.07194661
-0.106777315
-0.097747132
-0.07194661
-0.065496479
-0.084846871
-0.062916427
-0.060336375
-0.046146087
-0.034535852
-0.043566035
-0.040985983
-0.065496479
-0.059046349
-0.061626401
-0.061626401
-0.082266819
-0.070656584
-0.050016166
-0.068076531
-0.057756322
-0.051306192
-0.057756322
-0.028085722
-0.05517627
-0.087426923
-0.093877054
-0.092587028
-0.066786505
-0.047436113
-0.062916427
-0.073236636
-0.09516708
-0.097747132
-0.083556845
-0.079686766
-0.056466296
-0.079686766
-0.099037158
-0.066786505
-0.04872614
-0.077106714
-0.079686766
-0.051306192
-0.019055539
-0.037115905
-0.062916427
-0.080976793
-0.086136897
-0.066786505
-0.040985983
-0.05517627
-0.033245826
0.005454957
-0.0319558
-0.102907237
-0.082266819
-0.059046349
-0.066786505
-0.082266819
-0.053886244
-0.00873533
-0.038405931
-0.050016166
-0.075816688
-0.060336375
-0.017765513
-0.021635591
-0.033245826
-0.020345565
-0.028085722
-0.070656584
-0.088716949
-0.074526662
-0.042276009
-0.043566035
-0.050016166
-0.044856061
-0.038405931
-0.0319558
-0.0319558
-0.026795696
-0.047436113
-0.074526662
-0.084846871
-0.080976793
-0.053886244
-0.030665774
-0.020345565
-0.026795696
-0.017765513
-0.021635591
-0.035825878
-0.047436113
-0.037115905
-0.035825878
-0.042276009
-0.0319558
-0.006155278
-0.022925617
-0.037115905
-0.029375748
-0.01518546
-0.020345565
-0.051306192
-0.068076531
-0.052596218
-0.034535852
-0.026795696
-0.042276009
-0.038405931
-0.017765513
-0.034535852
-0.029375748
-0.010025356
-0.034535852
-0.059046349
-0.035825878
-0.033245826
-0.013895434
-0.00873533
-0.028085722
-0.05517627
-0.064206453
-0.068076531
-0.04872614
-0.019055539
-0.019055539
-0.050016166
-0.050016166
-0.030665774
-0.034535852
-0.040985983
-0.050016166
-0.025505669
0.004164931
0.011905088
-0.006155278
-0.07839674
-0.079686766
-0.029375748
0.00803501
0.010615062
-0.020345565
-0.021635591
-0.034535852
-0.047436113
-0.04872614
-0.038405931
-0.010025356
-0.017765513
-0.022925617
-0.017765513
-0.029375748
-0.037115905
0.026095375
0.037705611
0.024805349
0.015775166
-0.024215643
-0.059046349
-0.034535852
-0.037115905
-0.000995173
-0.002285199
0.015775166
0.023515323
0.01448514
-0.033245826
-0.050016166
-0.051306192
-0.040985983
-0.0319558
-0.006155278
0.000294853
-0.006155278
-0.01518546
-0.004865251
0.019645245
0.018355219
0.024805349
0.01448514
0.00803501
0.004164931
0.004164931
0.019645245
0.03125548
0.040285663
0.044155741
0.042865715
0.03125548
0.045445767
0.063506133
0.068666237
0.017065193
-0.003575225
-0.012605408
0.019645245
0.022225297
0.041575689
0.038995637
0.033835532
0.028675428
0.037705611
0.046735793
0.064796159
0.026095375
0.023515323
0.002874905
-0.006155278
0.027385402
0.042865715
0.058346028
0.080276472
0.062216107
0.036415584
0.018355219
0.018355219
0.037705611
0.057056002
0.059636055
0.026095375
-0.002285199
0.036415584
0.053185924
0.059636055
0.033835532
0.037705611
0.050605872
0.042865715
0.050605872
0.040285663
0.024805349
0.038995637
0.060926081
0.07124629
0.066086185
0.050605872
0.038995637
0.044155741
0.044155741
0.037705611
0.062216107
0.048025819
0.05447595
0.038995637
0.037705611
0.068666237
0.055765976
0.068666237
0.103496943
0.111237099
0.089306655
0.053185924
0.049315846
0.040285663
0.058346028
0.066086185
0.051895898
0.027385402
0.048025819
0.09446676
0.138327648
0.080276472
0.018355219
0.024805349
0.049315846
0.029965454
0.005454957
0.035125558
0.063506133
0.07124629
0.073826342
0.090596681
0.081566499
0.076406394
0.090596681
0.102206917
0.093176734
0.058346028
0.075116368
0.104786969
0.120267282
0.130587491
0.103496943
0.099626864
0.121557308
0.115107178
0.072536316
0.07124629
0.113817152
0.147357831
0.144777779
0.166708223
0.148647857
0.104786969
0.10091689
0.167998249
0.170578301
0.148647857
0.133167543
0.152517935
0.15767804
0.16412817
0.158968066
0.137037622
0.135747596
0.165418196
0.161548118
0.137037622
0.122847334
0.129297465
0.139617674
0.10091689
0.085436577
0.112527126
0.121557308
0.080276472
0.078986446
0.057056002
0.07124629
0.088016629
0.053185924
0.027385402
0.006744984
0.019645245
0.049315846
0.020935271
0.00803501
0.026095375
0.040285663
0.037705611
0.055765976
0.081566499
0.060926081
0.037705611
-0.012605408
0.044155741
0.044155741
0.028675428
0.038995637
0.01448514
0.020935271
0.033835532
0.049315846
0.041575689
0.002874905
-0.013895434
0.011905088
0.000294853
0.002874905
0.006744984
0.03125548
0.066086185
0.080276472
0.072536316
0.062216107
0.060926081
0.017065193
0.037705611
0.035125558
0.032545506
0.024805349
0.038995637
0.035125558
0.023515323
0.013195114
0.03125548
0.011905088
-0.006155278
0.001584879
-0.00873533
0.000294853
0.015775166
0.032545506
0.019645245
-0.006155278
-0.020345565
-0.003575225
0.013195114
0.044155741
0.03125548
0.020935271
-0.016475487
-0.037115905
-0.061626401
-0.05517627
-0.040985983
-0.04872614
-0.044856061
-0.029375748
-0.013895434
0.017065193
0.049315846
0.069956264
0.103496943
0.129297465
0.166708223
0.209279085
0.281520547
0.338281697
0.414393238
0.485344674
0.542105824
0.620797417
0.687878775
0.745929951
0.806561179
0.840101858
0.890412876
0.932983738
0.983294757
1.03876588
1.077466664
1.108427291
1.05553622
1.07875669
1.069726507
1.085206821
1.080046716
1.001355123
1.005225201
0.962654339
0.921373503
0.853002119
0.792370891
0.735609742
0.66981841
0.593706869
0.464704257
0.391172768
0.339571723
0.293130782
0.211859137
0.125427387
0.027385402
-0.038405931
-0.108067341
-0.149348177
-0.173858673
-0.231909849
-0.265450528
-0.277060763
-0.266740554
-0.282220867
-0.328661808
-0.293831103
-0.243520084
-0.24481011
-0.235779927
-0.262870476
-0.240940032
-0.193209065
-0.133867864
-0.123547655
-0.142898046
-0.133867864
-0.133867864
-0.132577837
-0.142898046
-0.132577837
-0.11193742
-0.096457106
-0.106777315
-0.110647393
-0.137737942
-0.160958412
-0.19836917
-0.180308804
-0.159668386
-0.142898046
-0.132577837
-0.159668386
-0.182888856
-0.150638203
-0.13515789
-0.153218255
-0.151928229
-0.127417733
-0.092587028
-0.086136897
-0.099037158
-0.115807498
-0.099037158
-0.100327184
-0.07839674
-0.087426923
-0.104197263
-0.113227446
-0.113227446
-0.091297002
-0.093877054
-0.110647393
-0.119677576
-0.136447916
-0.157088334
-0.146768125
-0.117097524
-0.086136897
-0.07839674
-0.099037158
-0.106777315
-0.100327184
-0.061626401
-0.035825878
-0.086136897
-0.110647393
-0.084846871
-0.087426923
-0.120967602
-0.146768125
-0.117097524
-0.090006975
-0.059046349
-0.070656584
-0.096457106
-0.100327184
-0.068076531
-0.097747132
-0.13515789
-0.123547655
-0.066786505
-0.052596218
-0.057756322
-0.047436113
-0.057756322
-0.102907237
-0.091297002
-0.070656584
-0.073236636
-0.090006975
-0.074526662
-0.053886244
-0.066786505
-0.066786505
-0.056466296
-0.059046349
-0.079686766
-0.090006975
-0.070656584
-0.050016166
-0.033245826
-0.030665774
-0.044856061
-0.044856061
-0.0319558
-0.035825878
-0.025505669
-0.022925617
-0.046146087
-0.068076531
-0.090006975
-0.079686766
-0.037115905
-0.037115905
-0.096457106
-0.083556845
-0.034535852
-0.021635591
-0.030665774
-0.035825878
-0.044856061
-0.07194661
-0.028085722
0.011905088
0.009325036
-0.022925617
-0.05517627
-0.052596218
-0.016475487
0.004164931
0.026095375
0.024805349
0.015775166
0.018355219
0.040285663
0.040285663
0.037705611
0.027385402
0.017065193
0.011905088
0.013195114
0.019645245
0.046735793
0.044155741
0.040285663
0.040285663
0.035125558
0.023515323
0.023515323
0.023515323
0.020935271
0.018355219
-0.004865251
0.005454957
0.026095375
0.037705611
0.032545506
0.042865715
0.068666237
0.041575689
0.051895898
0.078986446
0.062216107
0.027385402
0.038995637
0.076406394
0.089306655
0.080276472
0.082856525
0.089306655
0.084146551
0.058346028
0.07124629
0.084146551
0.049315846
0.051895898
0.063506133
0.060926081
0.080276472
0.106076995
0.116397204
0.128007439
0.082856525
0.049315846
0.063506133
0.046735793
0.091886708
0.102206917
0.126717413
0.129297465
0.122847334
0.112527126
0.106076995
0.081566499
0.086726603
0.108657047
0.129297465
0.143487752
0.128007439
0.107367021
0.095756786
0.116397204
0.111237099
0.09446676
0.104786969
0.137037622
0.144777779
0.144777779
0.144777779
0.109947073
0.108657047
0.125427387
0.121557308
0.129297465
0.112527126
0.118977256
0.143487752
0.126717413
0.143487752
0.160258092
0.146067805
0.098336838
0.055765976
0.064796159
0.086726603
0.097046812
0.09446676
0.113817152
0.120267282
0.093176734
0.082856525
0.066086185
0.050605872
0.040285663
0.062216107
0.059636055
0.060926081
0.057056002
0.068666237
0.062216107
0.042865715
0.045445767
0.058346028
0.03125548
0.009325036
-0.010025356
-0.025505669
-0.038405931
-0.029375748
-0.060336375
-0.065496479
-0.046146087
-0.043566035
-0.061626401
-0.086136897
-0.069366558
-0.104197263
-0.093877054
-0.105487289
-0.108067341
-0.104197263
-0.097747132
-0.113227446
-0.109357367
-0.109357367
-0.096457106
-0.122257628
-0.16482849
-0.208689379
-0.209979405
-0.168698569
-0.148058151
-0.139027968
-0.150638203
-0.188048961
-0.215139509
-0.230619823
-0.252550267
-0.22158964
-0.200949222
-0.19836917
-0.176438726
-0.153218255
-0.163538464
-0.173858673
-0.179018778
-0.184178882
-0.202239248
-0.231909849
-0.225459718
-0.190629013
-0.193209065
-0.199659196
-0.213849483
-0.213849483
-0.208689379
-0.226749744
-0.226749744
-0.220299614
-0.212559457
-0.215139509
-0.247390162
-0.257710371
-0.22803977
-0.209979405
-0.188048961
-0.188048961
-0.211269431
-0.239650005
-0.215139509
-0.166118517
-0.184178882
-0.2048193
-0.22803977
-0.242230058
-0.217719561
-0.199659196
-0.195789117
-0.151928229
-0.190629013
-0.259000397
-0.230619823
-0.203529274
-0.163538464
-0.149348177
-0.149348177
-0.184178882
-0.200949222
-0.203529274
-0.179018778
-0.142898046
-0.13515789
-0.179018778
-0.193209065
-0.18159883
-0.15837836
-0.157088334
-0.132577837
-0.129997785
-0.155798308
-0.175148699
-0.186758935
-0.176438726
-0.146768125
-0.14160802
-0.162248438
-0.173858673
-0.15837836
-0.148058151
-0.14160802
-0.119677576
-0.11838755
-0.151928229
-0.120967602
-0.119677576
-0.106777315
-0.127417733
-0.133867864
-0.117097524
-0.120967602
-0.139027968
-0.127417733
-0.153218255
-0.132577837
-0.109357367
-0.087426923
-0.079686766
-0.106777315
-0.144188073
-0.145478099
-0.131287811
-0.114517472
-0.068076531
-0.065496479
-0.07194661
-0.075816688
-0.053886244
-0.059046349
-0.068076531
-0.070656584
-0.077106714
-0.101617211
-0.09516708
-0.07839674
-0.087426923
-0.092587028
-0.080976793
-0.093877054
-0.110647393
-0.115807498
-0.127417733
-0.087426923
-0.064206453
-0.066786505
-0.051306192
-0.062916427
-0.057756322
-0.042276009
-0.04872614
-0.043566035
-0.034535852
-0.0319558
-0.042276009
-0.040985983
-0.046146087
-0.066786505
-0.059046349
-0.034535852
-0.046146087
-0.052596218
-0.062916427
-0.11193742
-0.102907237
-0.062916427
-0.053886244
-0.068076531
-0.056466296
-0.040985983
-0.043566035
-0.038405931
-0.037115905
-0.052596218
-0.062916427
-0.039695957
0.005454957
0.009325036
-0.022925617
-0.037115905
-0.040985983
-0.060336375
-0.05517627
-0.044856061
-0.050016166
-0.065496479
-0.056466296
-0.047436113
-0.046146087
-0.043566035
0.001584879
0.01448514
-0.079686766
-0.097747132
-0.087426923
-0.097747132
-0.033245826
-0.033245826
-0.026795696
-0.034535852
-0.047436113
-0.082266819
-0.074526662
-0.042276009
-0.034535852
-0.017765513
-0.030665774
-0.030665774
-0.021635591
-0.024215643
-0.061626401
-0.073236636
-0.052596218
-0.034535852
-0.010025356
0.029965454
-0.002285199
-0.047436113
-0.062916427
-0.056466296
0.004164931
0.010615062
0.001584879
0.006744984
0.004164931
-0.035825878
-0.050016166
-0.021635591
-0.025505669
-0.033245826
-0.016475487
-0.030665774
-0.024215643
-0.025505669
-0.028085722
-0.040985983
-0.053886244
-0.05517627
-0.047436113
-0.047436113
-0.046146087
-0.016475487
-0.019055539
-0.00873533
-0.010025356
-0.020345565
-0.029375748
-0.025505669
-0.020345565
-0.002285199
0.023515323
-0.000995173
0.010615062
0.019645245
0.009325036
0.01448514
-0.006155278
0.004164931
-0.029375748
-0.042276009
-0.037115905
-0.039695957
-0.021635591
-0.00873533
-0.004865251
-0.029375748
-0.039695957
-0.056466296
-0.051306192
-0.061626401
-0.069366558
-0.061626401
-0.044856061
-0.025505669
-0.024215643
-0.002285199
0.001584879
-0.033245826
-0.025505669
-0.012605408
-0.00873533
-0.013895434
-0.003575225
0.000294853
0.002874905
0.010615062
-0.011315382
-0.05517627
-0.038405931
-0.030665774
-0.020345565
-0.044856061
-0.050016166
0.004164931
0.004164931
-0.004865251
0.026095375
0.010615062
-0.010025356
-0.013895434
-0.021635591
-0.030665774
-0.00873533
0.013195114
0.019645245
0.023515323
0.027385402
0.01448514
0.013195114
0.005454957
-0.00873533
0.001584879
0.010615062
0.001584879
-0.012605408
-0.000995173
0.024805349
0.03125548
0.059636055
0.063506133
0.015775166
-0.003575225
-0.004865251
0.005454957
0.010615062
0.006744984
0.018355219
0.010615062
0.009325036
0.020935271
0.013195114
0.032545506
0.010615062
-0.028085722
-0.003575225
0.019645245
0.00803501
0.001584879
-0.017765513
-0.021635591
-0.01518546
0.004164931
0.042865715
0.03125548
0.011905088
0.009325036
0.006744984
-0.006155278
-0.007445304
0.017065193
-0.007445304
-0.003575225
0.026095375
0.048025819
0.063506133
0.050605872
0.013195114
0.017065193
0.013195114
0.024805349
0.026095375
0.013195114
0.015775166
-0.000995173
0.000294853
0.022225297
0.006744984
0.019645245
0.018355219
0.019645245
-0.013895434
-0.007445304
0.013195114
0.032545506
0.060926081
0.067376211
0.053185924
0.018355219
0.017065193
0.035125558
0.042865715
0.036415584
0.03125548
0.004164931
-0.010025356
0.023515323
0.000294853
-0.003575225
0.015775166
-0.003575225
-0.017765513
-0.003575225
0.00803501
0.006744984
-0.010025356
0.006744984
0.011905088
0.024805349
0.024805349
0.010615062
0.000294853
-0.004865251
0.006744984
0.023515323
0.032545506
0.040285663
0.024805349
0.009325036
-0.01518546
0.028675428
0.029965454
0.011905088
0.022225297
0.046735793
0.064796159
0.027385402
0.005454957
0.036415584
0.032545506
0.029965454
0.048025819
0.058346028
0.048025819
0.013195114
0.01448514
0.050605872
0.051895898
0.050605872
0.029965454
0.013195114
0.002874905
0.010615062
0.00803501
0.002874905
-0.011315382
0.018355219
0.026095375
0.001584879
-0.007445304
-0.007445304
0.006744984
-0.016475487
-0.011315382
0.005454957
0.01448514
0.017065193
0.026095375
0.03125548
0.044155741
0.053185924
0.055765976
0.03125548
0.027385402
0.019645245
0.010615062
0.049315846
0.07124629
0.028675428
0.03125548
0.064796159
0.066086185
0.020935271
-0.004865251
0.010615062
0.042865715
0.038995637
0.023515323
0.035125558
0.055765976
0.037705611
0.048025819
0.051895898
0.029965454
0.017065193
0.053185924
0.084146551
0.028675428
0.023515323
0.048025819
0.010615062
0.038995637
0.055765976
0.044155741
0.020935271
0.041575689
0.062216107
0.05447595
0.019645245
0.028675428
0.03125548
0.048025819
0.062216107
0.062216107
0.081566499
0.073826342
0.032545506
0.03125548
0.073826342
0.072536316
0.058346028
0.098336838
0.102206917
0.064796159
-0.003575225
0.029965454
0.098336838
0.041575689
0.044155741
0.046735793
0.028675428
0.05447595
0.095756786
0.095756786
0.07769642
0.073826342
0.072536316
0.089306655
0.113817152
0.113817152
0.102206917
0.10091689
0.080276472
0.091886708
0.109947073
0.084146551
0.084146551
0.090596681
0.062216107
0.050605872
0.041575689
0.036415584
0.075116368
0.084146551
0.053185924
0.042865715
0.040285663
0.055765976
0.066086185
0.053185924
0.055765976
0.049315846
0.035125558
0.009325036
0.010615062
0.027385402
0.015775166
-0.004865251
0.009325036
0.013195114
-0.037115905
-0.033245826
-0.000995173
-0.002285199
-0.007445304
-0.038405931
-0.020345565
-0.002285199
-0.016475487
-0.004865251
-0.000995173
0.013195114
0.044155741
0.019645245
-0.00873533
-0.006155278
-0.00873533
-0.019055539
-0.017765513
-0.021635591
-0.01518546
0.026095375
0.028675428
-0.026795696
-0.004865251
-0.012605408
-0.00873533
0.018355219
0.049315846
0.013195114
-0.022925617
0.017065193
0.011905088
-0.006155278
0.022225297
0.036415584
0.009325036
-0.002285199
0.01448514
0.015775166
0.023515323
0.028675428
0.022225297
0.01448514
-0.030665774
0.000294853
0.026095375
0.005454957
-0.028085722
-0.038405931
-0.028085722
-0.04872614
-0.074526662
-0.075816688
-0.079686766
-0.087426923
-0.083556845
-0.115807498
-0.106777315
-0.101617211
-0.086136897
-0.077106714
-0.087426923
-0.064206453
-0.022925617
0.01448514
0.040285663
0.050605872
0.103496943
0.193798771
0.298290887
0.344731827
0.374402428
0.409233133
0.499534962
0.584676686
0.616927339
0.694328906
0.760120238
0.8026911
0.873642537
0.90589319
0.987164835
1.031025724
1.043925985
1.025865619
1.016835436
1.03876588
1.091656951
1.104557212
1.108427291
1.059406298
1.003935175
1.005225201
1.001355123
0.931693712
0.851712093
0.793660917
0.711099246
0.647887966
0.573066451
0.481474596
0.401492977
0.317641279
0.237659659
0.183478562
0.118977256
0.015775166
-0.068076531
-0.120967602
-0.15837836
-0.208689379
-0.239650005
-0.238359979
-0.229329797
-0.239650005
-0.247390162
-0.255130319
-0.229329797
-0.225459718
-0.229329797
-0.193209065
-0.173858673
-0.175148699
-0.171278621
-0.136447916
-0.100327184
-0.129997785
-0.131287811
-0.123547655
-0.122257628
-0.114517472
-0.136447916
-0.137737942
-0.142898046
-0.149348177
-0.153218255
-0.160958412
-0.154508281
-0.140317994
-0.173858673
-0.212559457
-0.209979405
-0.189338987
-0.176438726
-0.167408543
-0.184178882
-0.216429535
-0.2048193
-0.194499091
-0.197079143
-0.179018778
-0.189338987
-0.171278621
-0.175148699
-0.185468908
-0.150638203
-0.132577837
-0.180308804
-0.193209065
-0.168698569
-0.173858673
-0.150638203
-0.123547655
-0.150638203
-0.159668386
-0.176438726
-0.176438726
-0.176438726
-0.131287811
-0.145478099
-0.157088334
-0.159668386
-0.155798308
-0.169988595
-0.153218255
-0.105487289
-0.104197263
-0.120967602
-0.119677576
-0.122257628
-0.11838755
-0.104197263
-0.090006975
-0.092587028
-0.101617211
-0.122257628
-0.108067341
-0.110647393
-0.113227446
-0.100327184
-0.104197263
-0.11838755
-0.129997785
-0.132577837
-0.144188073
-0.127417733
-0.091297002
-0.092587028
-0.117097524
-0.113227446
-0.100327184
-0.082266819
-0.070656584
-0.082266819
-0.07839674
-0.068076531
-0.073236636
-0.087426923
-0.073236636
-0.052596218
-0.05517627
-0.064206453
-0.097747132
-0.092587028
-0.061626401
-0.059046349
-0.042276009
-0.05517627
-0.069366558
-0.092587028
-0.062916427
-0.024215643
-0.04872614
-0.038405931
-0.056466296
-0.012605408
0.000294853
-0.073236636
-0.035825878
-0.004865251
0.018355219
0.033835532
-0.024215643
-0.034535852
-0.028085722
-0.025505669
0.004164931
0.004164931
-0.007445304
-0.011315382
-0.033245826
-0.042276009
-0.047436113
-0.021635591
-0.007445304
0.01448514
0.001584879
-0.046146087
-0.053886244
-0.052596218
-0.042276009
-0.0319558
-0.030665774
-0.020345565
-0.013895434
0.000294853
0.002874905
0.024805349
0.044155741
0.03125548
-0.010025356
0.024805349
0.057056002
0.051895898
0.057056002
0.073826342
0.069956264
0.058346028
0.059636055
0.080276472
0.073826342
0.035125558
0.026095375
0.024805349
0.032545506
0.053185924
0.042865715
0.050605872
0.055765976
0.041575689
0.040285663
0.023515323
0.010615062
0.022225297
0.005454957
0.024805349
0.080276472
0.098336838
0.093176734
0.112527126
0.088016629
0.060926081
0.102206917
0.10091689
0.085436577
0.084146551
0.09446676
0.115107178
0.113817152
0.124137361
0.1409077
0.138327648
0.118977256
0.111237099
0.112527126
0.122847334
0.088016629
0.082856525
0.103496943
0.080276472
0.097046812
0.120267282
0.116397204
0.120267282
0.146067805
0.131877517
0.122847334
0.089306655
0.089306655
0.112527126
0.112527126
0.113817152
0.152517935
0.147357831
0.148647857
0.160258092
0.135747596
0.107367021
0.112527126
0.122847334
0.137037622
0.143487752
0.15767804
0.142197726
0.116397204
0.115107178
0.118977256
0.115107178
0.15767804
0.16412817
0.109947073
0.076406394
0.060926081
0.062216107
0.093176734
0.069956264
0.050605872
0.063506133
0.082856525
0.088016629
0.07769642
0.050605872
0.027385402
-0.030665774
-0.066786505
-0.028085722
0.01448514
0.020935271
0.015775166
0.017065193
0.004164931
-0.012605408
-0.017765513
-0.042276009
-0.083556845
-0.097747132
-0.100327184
-0.088716949
-0.086136897
-0.093877054
-0.066786505
-0.080976793
-0.119677576
-0.145478099
-0.146768125
-0.142898046
-0.148058151
-0.137737942
-0.13515789
-0.140317994
-0.163538464
-0.15837836
-0.140317994
-0.149348177
-0.175148699
-0.16482849
-0.175148699
-0.15837836
-0.15837836
-0.171278621
-0.190629013
-0.167408543
-0.148058151
-0.145478099
-0.202239248
-0.219009588
-0.203529274
-0.219009588
-0.233199875
-0.213849483
-0.2048193
-0.206109326
-0.184178882
-0.191919039
-0.213849483
-0.271900658
-0.282220867
-0.246100136
-0.239650005
-0.246100136
-0.213849483
-0.224169692
-0.249970214
-0.240940032
-0.229329797
-0.249970214
-0.239650005
-0.225459718
-0.22803977
-0.22158964
-0.222879666
-0.226749744
-0.22158964
-0.19836917
-0.173858673
-0.177728752
-0.19836917
-0.2048193
-0.184178882
-0.182888856
-0.167408543
-0.182888856
-0.213849483
-0.193209065
-0.186758935
-0.19836917
-0.189338987
-0.166118517
-0.166118517
-0.193209065
-0.197079143
-0.207399352
-0.206109326
-0.188048961
-0.160958412
-0.154508281
-0.169988595
-0.176438726
-0.18159883
-0.163538464
-0.136447916
-0.126127707
-0.14160802
-0.15837836
-0.168698569
-0.157088334
-0.144188073
-0.146768125
-0.160958412
-0.153218255
-0.091297002
-0.100327184
-0.13515789
-0.159668386
-0.149348177
-0.139027968
-0.132577837
-0.11193742
-0.124837681
-0.100327184
-0.065496479
-0.070656584
-0.128707759
-0.127417733
-0.124837681
-0.15837836
-0.177728752
-0.110647393
-0.104197263
-0.11193742
-0.114517472
-0.122257628
-0.124837681
-0.110647393
-0.110647393
-0.101617211
-0.090006975
-0.126127707
-0.124837681
-0.115807498
-0.140317994
-0.146768125
-0.083556845
-0.096457106
-0.105487289
-0.115807498
-0.11838755
-0.110647393
-0.102907237
-0.11193742
-0.120967602
-0.137737942
-0.124837681
-0.084846871
-0.083556845
-0.091297002
-0.07839674
-0.075816688
-0.120967602
-0.110647393
-0.083556845
-0.084846871
-0.110647393
-0.124837681
-0.099037158
-0.090006975
-0.057756322
-0.057756322
-0.092587028
-0.11838755
-0.11193742
-0.093877054
-0.092587028
-0.088716949
-0.080976793
-0.047436113
-0.020345565
-0.043566035
-0.088716949
-0.096457106
-0.060336375
-0.066786505
-0.075816688
-0.075816688
-0.069366558
-0.056466296
-0.053886244
-0.064206453
-0.057756322
-0.069366558
-0.05517627
-0.035825878
-0.013895434
-0.00873533
-0.011315382
-0.021635591
-0.035825878
-0.034535852
-0.038405931
-0.019055539
-0.034535852
-0.047436113
-0.034535852
-0.042276009
-0.053886244
-0.047436113
-0.034535852
-0.05517627
-0.047436113
-0.029375748
-0.017765513
-0.013895434
-0.026795696
-0.040985983
-0.013895434
-0.019055539
-0.060336375
-0.033245826
-0.033245826
0.000294853
0.005454957
-0.01518546
-0.051306192
-0.080976793
-0.046146087
0.000294853
0.018355219
0.041575689
0.015775166
-0.017765513
-0.016475487
-0.012605408
0.002874905
-0.010025356
-0.028085722
-0.013895434
0.011905088
0.019645245
-0.00873533
-0.043566035
-0.028085722
0.006744984
0.006744984
-0.042276009
-0.059046349
-0.070656584
-0.056466296
-0.051306192
-0.053886244
-0.034535852
-0.012605408
-0.006155278
-0.012605408
-0.013895434
-0.021635591
-0.028085722
-0.042276009
-0.0319558
0.015775166
0.01448514
-0.010025356
0.005454957
0.01448514
0.009325036
0.027385402
-0.022925617
-0.079686766
-0.051306192
-0.043566035
-0.006155278
-0.00873533
-0.037115905
-0.025505669
-0.0319558
-0.042276009
-0.024215643
-0.010025356
-0.011315382
-0.024215643
-0.034535852
-0.011315382
-0.010025356
0.000294853
0.028675428
0.009325036
0.017065193
0.022225297
-0.004865251
0.000294853
0.006744984
0.023515323
0.022225297
0.018355219
0.018355219
0.005454957
-0.011315382
-0.01518546
0.009325036
0.01448514
0.019645245
0.009325036
-0.006155278
-0.017765513
-0.022925617
-0.003575225
-0.00873533
-0.025505669
-0.030665774
-0.020345565
0.002874905
-0.003575225
-0.010025356
-0.00873533
-0.010025356
-0.000995173
-0.000995173
-0.034535852
-0.01518546
-0.007445304
0.009325036
0.000294853
0.006744984
0.010615062
0.002874905
-0.002285199
-0.01518546
-0.002285199
0.011905088
0.010615062
0.002874905
-0.01518546
-0.003575225
-0.011315382
-0.000995173
0.004164931
0.005454957
0.017065193
0.010615062
0.005454957
0.010615062
0.019645245
0.026095375
0.001584879
0.015775166
0.037705611
0.020935271
-0.006155278
0.024805349
0.042865715
0.040285663
0.053185924
0.064796159
0.05447595
0.041575689
0.057056002
0.044155741
0.022225297
0.01448514
0.032545506
0.038995637
0.028675428
0.040285663
0.026095375
0.035125558
0.029965454
0.022225297
0.01448514
0.024805349
0.038995637
0.022225297
0.045445767
0.05447595
0.035125558
0.040285663
0.053185924
0.03125548
0.023515323
0.050605872
0.051895898
0.060926081
0.050605872
0.026095375
0.055765976
0.048025819
0.028675428
0.040285663
0.050605872
0.053185924
0.037705611
0.037705611
0.068666237
0.048025819
0.038995637
0.055765976
0.051895898
0.055765976
0.048025819
0.046735793
0.023515323
0.017065193
0.040285663
0.033835532
0.059636055
0.05447595
0.062216107
0.068666237
0.075116368
0.076406394
0.068666237
0.037705611
0.022225297
0.057056002
0.067376211
0.041575689
0.093176734
0.086726603
0.028675428
0.00803501
0.040285663
0.058346028
0.029965454
0.026095375
0.044155741
0.038995637
0.046735793
0.048025819
0.029965454
0.006744984
0.009325036
0.042865715
0.050605872
0.067376211
0.072536316
0.069956264
0.041575689
0.01448514
0.03125548
0.027385402
0.035125558
0.018355219
0.026095375
0.05447595
0.036415584
0.026095375
0.027385402
0.028675428
0.036415584
0.029965454
0.019645245
0.023515323
0.040285663
0.058346028
0.060926081
0.032545506
0.013195114
0.041575689
0.042865715
0.064796159
0.067376211
0.063506133
0.059636055
0.027385402
0.015775166
0.002874905
0.000294853
0.028675428
0.038995637
0.055765976
0.051895898
0.066086185
0.05447595
0.019645245
-0.007445304
0.000294853
0.040285663
0.067376211
0.067376211
0.05447595
0.045445767
0.046735793
0.045445767
0.040285663
0.03125548
0.018355219
0.017065193
0.044155741
0.049315846
0.063506133
0.018355219
-0.010025356
-0.01518546
-0.004865251
0.019645245
-0.007445304
0.000294853
0.024805349
0.015775166
-0.011315382
-0.013895434
-0.003575225
-0.003575225
-0.013895434
-0.000995173
0.00803501
0.027385402
0.036415584
-0.007445304
0.020935271
0.044155741
0.040285663
0.064796159
0.067376211
0.032545506
0.002874905
0.020935271
0.032545506
0.046735793
0.066086185
0.032545506
0.01448514
0.019645245
0.027385402
0.046735793
0.028675428
0.020935271
0.03125548
0.060926081
0.067376211
0.046735793
0.035125558
0.019645245
0.000294853
0.01448514
0.040285663
0.049315846
0.066086185
0.085436577
0.075116368
0.063506133
0.069956264
0.072536316
0.036415584
-0.026795696
-0.00873533
0.037705611
0.068666237
0.082856525
0.080276472
0.073826342
0.068666237
0.026095375
0.005454957
0.000294853
0.013195114
0.050605872
0.05447595
0.048025819
0.053185924
0.063506133
0.041575689
0.050605872
0.060926081
0.078986446
0.073826342
0.063506133
0.057056002
0.069956264
0.084146551
0.093176734
0.093176734
0.106076995
0.104786969
0.086726603
0.078986446
0.095756786
0.11768723
0.113817152
0.111237099
0.118977256
0.085436577
0.05447595
0.060926081
0.081566499
0.093176734
0.099626864
0.118977256
0.097046812
0.073826342
0.022225297
0.029965454
0.051895898
0.05447595
0.05447595
0.057056002
0.027385402
0.00803501
0.028675428
0.063506133
0.051895898
0.040285663
0.020935271
0.010615062
0.029965454
0.017065193
-0.000995173
-0.016475487
-0.030665774
0.005454957
0.002874905
-0.00873533
-0.017765513
-0.035825878
-0.053886244
-0.050016166
0.019645245
0.036415584
0.009325036
-0.020345565
-0.020345565
-0.016475487
-0.033245826
-0.010025356
0.000294853
-0.024215643
-0.030665774
-0.004865251
-0.003575225
-0.019055539
-0.020345565
-0.04872614
-0.053886244
-0.050016166
-0.025505669
-0.004865251
0.005454957
-0.024215643
-0.062916427
-0.065496479
-0.059046349
-0.029375748
-0.002285199
0.018355219
0.024805349
0.010615062
-0.006155278
-0.020345565
-0.046146087
-0.05517627
-0.050016166
-0.037115905
-0.003575225
-0.01518546
-0.013895434
-0.024215643
-0.022925617
-0.0319558
-0.051306192
-0.038405931
-0.035825878
-0.028085722
-0.064206453
-0.09516708
-0.074526662
-0.050016166
-0.061626401
-0.077106714
-0.110647393
-0.132577837
-0.131287811
-0.110647393
-0.101617211
-0.082266819
-0.077106714
-0.069366558
-0.052596218
-0.025505669
0.038995637
0.076406394
0.113817152
0.155097988
0.223469372
0.280230521
0.361502167
0.391172768
0.476314492
0.531785615
0.54339585
0.623377469
0.682718671
0.745929951
0.818171414
0.864612354
0.911053294
1.011675332
1.064566403
1.069726507
0.976844626
0.979424679
1.052956168
1.076176638
1.089076899
1.092946977
1.077466664
1.067146455
1.014255384
0.958784261
0.867192406
0.810431257
0.752380081
0.656918149
0.582096634
0.539525772
0.43374363
0.299580913
0.237659659
0.183478562
0.122847334
0.066086185
-0.00873533
-0.07194661
-0.132577837
-0.213849483
-0.253840293
-0.283510894
-0.297701181
-0.287380972
-0.278350789
-0.252550267
-0.231909849
-0.269320606
-0.262870476
-0.26803058
-0.275770737
-0.256420345
-0.222879666
-0.190629013
-0.200949222
-0.202239248
-0.177728752
-0.146768125
-0.167408543
-0.200949222
-0.208689379
-0.127417733
-0.100327184
-0.16482849
-0.191919039
-0.171278621
-0.15837836
-0.171278621
-0.189338987
-0.200949222
-0.213849483
-0.213849483
-0.2048193
-0.18159883
-0.172568647
-0.171278621
-0.179018778
-0.186758935
-0.19836917
-0.19836917
-0.184178882
-0.171278621
-0.169988595
-0.157088334
-0.13515789
-0.132577837
-0.15837836
-0.167408543
-0.184178882
-0.163538464
-0.159668386
-0.150638203
-0.15837836
-0.203529274
-0.209979405
-0.175148699
-0.168698569
-0.159668386
-0.140317994
-0.139027968
-0.163538464
-0.169988595
-0.169988595
-0.180308804
-0.162248438
-0.117097524
-0.150638203
-0.157088334
-0.149348177
-0.154508281
-0.139027968
-0.14160802
-0.166118517
-0.148058151
-0.115807498
-0.114517472
-0.142898046
-0.166118517
-0.154508281
-0.132577837
-0.148058151
-0.16482849
-0.132577837
-0.115807498
-0.137737942
-0.145478099
-0.110647393
-0.119677576
-0.142898046
-0.126127707
-0.093877054
-0.092587028
-0.133867864
-0.153218255
-0.159668386
-0.117097524
-0.07839674
-0.070656584
-0.090006975
-0.110647393
-0.122257628
-0.082266819
-0.062916427
-0.059046349
-0.092587028
-0.07839674
-0.065496479
-0.059046349
-0.077106714
-0.101617211
-0.113227446
-0.105487289
-0.064206453
-0.060336375
-0.069366558
-0.082266819
-0.083556845
-0.068076531
-0.04872614
-0.035825878
-0.039695957
-0.030665774
-0.057756322
-0.099037158
-0.07194661
-0.047436113
-0.034535852
-0.034535852
-0.024215643
-0.017765513
-0.016475487
-0.050016166
-0.059046349
-0.022925617
0.010615062
-0.046146087
-0.04872614
-0.026795696
-0.033245826
-0.026795696
-0.003575225
-0.000995173
-0.003575225
-0.003575225
-0.019055539
-0.00873533
0.01448514
0.042865715
0.022225297
-0.047436113
-0.040985983
0.010615062
0.036415584
0.019645245
0.019645245
0.015775166
0.019645245
0.033835532
0.03125548
0.019645245
0.01448514
0.032545506
0.044155741
0.040285663
0.049315846
0.022225297
0.000294853
0.023515323
0.049315846
0.064796159
0.049315846
0.036415584
0.027385402
0.037705611
0.036415584
0.055765976
0.062216107
0.088016629
0.085436577
0.085436577
0.07124629
0.084146551
0.082856525
0.09446676
0.112527126
0.109947073
0.09446676
0.090596681
0.108657047
0.099626864
0.099626864
0.084146551
0.113817152
0.129297465
0.115107178
0.084146551
0.07769642
0.115107178
0.11768723
0.102206917
0.138327648
0.11768723
0.099626864
0.113817152
0.151227909
0.165418196
0.155097988
0.171868327
0.169288275
0.158968066
0.125427387
0.124137361
0.102206917
0.122847334
0.152517935
0.149937883
0.104786969
0.058346028
0.09446676
0.116397204
0.095756786
0.082856525
0.080276472
0.040285663
0.045445767
0.10091689
0.115107178
0.07769642
0.07124629
0.091886708
0.085436577
0.095756786
0.089306655
0.066086185
0.064796159
0.063506133
0.099626864
0.097046812
0.106076995
0.095756786
0.067376211
0.038995637
0.037705611
0.019645245
0.020935271
0.020935271
0.001584879
0.002874905
0.010615062
0.006744984
-0.028085722
-0.029375748
-0.022925617
-0.033245826
-0.0319558
-0.07194661
-0.104197263
-0.087426923
-0.073236636
-0.062916427
-0.050016166
-0.07194661
-0.099037158
-0.093877054
-0.100327184
-0.13515789
-0.137737942
-0.148058151
-0.14160802
-0.140317994
-0.117097524
-0.119677576
-0.159668386
-0.194499091
-0.200949222
-0.182888856
-0.203529274
-0.213849483
-0.202239248
-0.193209065
-0.177728752
-0.219009588
-0.219009588
-0.209979405
-0.188048961
-0.172568647
-0.177728752
-0.186758935
-0.191919039
-0.202239248
-0.207399352
-0.220299614
-0.169988595
-0.159668386
-0.176438726
-0.169988595
-0.222879666
-0.226749744
-0.222879666
-0.184178882
-0.172568647
-0.202239248
-0.222879666
-0.226749744
-0.211269431
-0.18159883
-0.195789117
-0.251260241
-0.243520084
-0.216429535
-0.212559457
-0.18159883
-0.190629013
-0.197079143
-0.2048193
-0.175148699
-0.175148699
-0.207399352
-0.208689379
-0.230619823
-0.249970214
-0.224169692
-0.213849483
-0.206109326
-0.208689379
-0.185468908
-0.188048961
-0.22158964
-0.230619823
-0.229329797
-0.231909849
-0.2048193
-0.200949222
-0.203529274
-0.148058151
-0.105487289
-0.140317994
-0.159668386
-0.136447916
-0.122257628
-0.115807498
-0.123547655
-0.150638203
-0.145478099
-0.119677576
-0.092587028
-0.097747132
-0.102907237
-0.106777315
-0.108067341
-0.122257628
-0.117097524
-0.124837681
-0.133867864
-0.128707759
-0.119677576
-0.11193742
-0.106777315
-0.110647393
-0.106777315
-0.090006975
-0.083556845
-0.114517472
-0.079686766
-0.061626401
-0.108067341
-0.101617211
-0.053886244
-0.065496479
-0.096457106
-0.086136897
-0.075816688
-0.075816688
-0.104197263
-0.082266819
-0.086136897
-0.09516708
-0.090006975
-0.086136897
-0.088716949
-0.09516708
-0.105487289
-0.105487289
-0.109357367
-0.105487289
-0.113227446
-0.127417733
-0.11193742
-0.086136897
-0.066786505
-0.110647393
-0.137737942
-0.136447916
-0.120967602
-0.080976793
-0.070656584
-0.101617211
-0.104197263
-0.079686766
-0.060336375
-0.093877054
-0.114517472
-0.084846871
-0.086136897
-0.084846871
-0.082266819
-0.066786505
-0.046146087
-0.077106714
-0.105487289
-0.100327184
-0.07839674
-0.070656584
-0.064206453
-0.057756322
-0.047436113
-0.037115905
-0.068076531
-0.07194661
-0.025505669
-0.025505669
-0.04872614
-0.037115905
-0.061626401
-0.083556845
-0.052596218
-0.043566035
-0.057756322
-0.080976793
-0.083556845
-0.052596218
-0.033245826
-0.047436113
-0.056466296
-0.064206453
-0.07194661
-0.075816688
-0.051306192
-0.037115905
-0.033245826
-0.012605408
-0.01518546
-0.046146087
-0.066786505
-0.020345565
-0.017765513
-0.044856061
-0.051306192
-0.033245826
-0.019055539
-0.026795696
-0.00873533
-0.01518546
-0.042276009
-0.021635591
0.000294853
0.009325036
0.009325036
0.005454957
-0.002285199
-0.035825878
-0.022925617
0.019645245
0.011905088
0.023515323
0.040285663
0.022225297
-0.020345565
-0.022925617
-0.025505669
-0.051306192
-0.038405931
-0.033245826
-0.037115905
-0.030665774
-0.00873533
0.011905088
-0.002285199
-0.024215643
-0.037115905
-0.062916427
-0.056466296
-0.030665774
-0.021635591
-0.016475487
-0.017765513
-0.035825878
-0.003575225
0.00803501
-0.016475487
-0.026795696
-0.025505669
-0.003575225
0.011905088
0.005454957
0.005454957
-0.000995173
0.001584879
-0.024215643
-0.021635591
0.006744984
-0.017765513
-0.017765513
-0.010025356
0.001584879
0.015775166
-0.004865251
-0.019055539
-0.011315382
-0.012605408
-0.010025356
-0.016475487
-0.01518546
-0.010025356
-0.000995173
-0.011315382
-0.01518546
-0.029375748
-0.01518546
-0.010025356
-0.021635591
-0.000995173
0.011905088
-0.017765513
-0.002285199
-0.011315382
-0.013895434
-0.039695957
-0.016475487
0.010615062
-0.007445304
-0.006155278
-0.010025356
0.002874905
-0.012605408
-0.022925617
-0.021635591
-0.019055539
0.018355219
0.018355219
-0.003575225
-0.039695957
-0.057756322
-0.0319558
-0.006155278
0.001584879
-0.00873533
-0.01518546
0.006744984
0.006744984
0.004164931
-0.028085722
-0.046146087
-0.006155278
0.013195114
0.009325036
0.011905088
-0.010025356
0.01448514
0.019645245
0.015775166
-0.007445304
-0.030665774
-0.033245826
-0.002285199
0.035125558
0.027385402
0.009325036
-0.013895434
-0.011315382
0.001584879
0.038995637
0.015775166
-0.004865251
0.027385402
0.036415584
0.011905088
-0.002285199
0.013195114
0.029965454
0.045445767
0.037705611
0.035125558
0.040285663
0.044155741
0.036415584
0.038995637
0.020935271
0.004164931
0.020935271
0.023515323
0.038995637
0.062216107
0.037705611
0.009325036
0.015775166
0.000294853
0.015775166
0.026095375
0.004164931
0.005454957
0.024805349
0.023515323
0.055765976
0.064796159
0.044155741
0.000294853
-0.019055539
0.017065193
0.018355219
0.010615062
0.029965454
0.013195114
0.000294853
0.011905088
0.020935271
0.013195114
0.011905088
0.018355219
0.019645245
0.057056002
0.064796159
0.060926081
0.048025819
0.017065193
0.024805349
0.03125548
0.029965454
0.048025819
0.033835532
0.038995637
0.066086185
0.078986446
0.049315846
0.015775166
0.002874905
0.002874905
0.004164931
0.001584879
-0.003575225
0.018355219
0.013195114
-0.000995173
0.00803501
0.002874905
0.015775166
0.069956264
0.063506133
0.017065193
-0.021635591
-0.004865251
0.017065193
0.033835532
0.041575689
0.03125548
0.015775166
0.009325036
0.045445767
0.046735793
0.049315846
0.01448514
0.004164931
0.046735793
0.019645245
-0.010025356
0.002874905
0.018355219
0.03125548
0.03125548
0.032545506
0.011905088
0.019645245
0.017065193
0.026095375
0.053185924
0.044155741
0.023515323
0.057056002
0.053185924
0.027385402
0.028675428
0.010615062
0.037705611
0.05447595
0.048025819
0.057056002
0.066086185
0.064796159
0.026095375
-0.004865251
0.024805349
0.013195114
0.017065193
0.01448514
0.019645245
0.049315846
0.011905088
-0.039695957
-0.010025356
-0.016475487
-0.007445304
0.010615062
0.033835532
0.035125558
0.010615062
0.015775166
-0.012605408
-0.006155278
0.041575689
0.093176734
0.050605872
0.011905088
0.01448514
0.045445767
0.05447595
0.035125558
0.01448514
0.013195114
0.028675428
0.048025819
0.051895898
0.069956264
0.069956264
0.076406394
0.044155741
0.000294853
0.020935271
0.051895898
0.057056002
0.03125548
0.035125558
0.053185924
0.044155741
0.040285663
0.058346028
0.068666237
0.023515323
-0.011315382
-0.006155278
0.000294853
0.017065193
0.011905088
0.029965454
0.050605872
0.036415584
-0.020345565
-0.016475487
0.019645245
0.023515323
0.002874905
0.009325036
0.015775166
-0.011315382
0.022225297
0.023515323
-0.017765513
-0.024215643
0.002874905
0.037705611
0.019645245
-0.002285199
0.03125548
0.038995637
0.032545506
0.005454957
0.01448514
0.045445767
0.07124629
0.055765976
0.037705611
0.026095375
0.051895898
0.041575689
0.004164931
0.029965454
0.05447595
0.048025819
0.057056002
0.07124629
0.049315846
-0.003575225
-0.007445304
0.024805349
0.017065193
0.019645245
0.01448514
0.042865715
0.082856525
0.07769642
0.058346028
0.026095375
0.000294853
-0.01518546
-0.021635591
0.009325036
0.002874905
-0.011315382
0.010615062
0.044155741
0.051895898
0.057056002
0.044155741
0.013195114
0.000294853
-0.003575225
0.005454957
0.027385402
0.035125558
0.066086185
0.062216107
0.015775166
0.028675428
0.084146551
0.080276472
0.086726603
0.075116368
0.059636055
0.048025819
0.023515323
0.029965454
0.057056002
0.090596681
0.05447595
0.027385402
0.086726603
0.057056002
0.01448514
0.038995637
0.057056002
0.046735793
0.060926081
0.026095375
0.045445767
0.069956264
0.088016629
0.09446676
0.095756786
0.075116368
0.063506133
0.076406394
0.115107178
0.116397204
0.086726603
0.07124629
0.068666237
0.089306655
0.090596681
0.089306655
0.063506133
0.080276472
0.13445757
0.116397204
0.086726603
0.102206917
0.091886708
0.095756786
0.09446676
0.088016629
0.090596681
0.121557308
0.13445757
0.111237099
0.09446676
0.075116368
0.075116368
0.053185924
0.042865715
0.068666237
0.048025819
0.020935271
0.045445767
0.064796159
0.081566499
0.019645245
0.00803501
0.019645245
0.041575689
0.038995637
0.029965454
0.027385402
0.028675428
0.035125558
0.019645245
0.011905088
-0.010025356
-0.029375748
-0.033245826
-0.024215643
-0.017765513
-0.029375748
-0.026795696
-0.003575225
-0.004865251
-0.010025356
-0.016475487
-0.006155278
-0.002285199
0.000294853
0.005454957
0.027385402
0.009325036
0.015775166
0.00803501
-0.01518546
0.011905088
0.01448514
0.018355219
-0.003575225
-0.030665774
-0.010025356
-0.00873533
-0.00873533
-0.029375748
-0.034535852
-0.033245826
-0.035825878
-0.004865251
-0.016475487
-0.01518546
0.000294853
-0.010025356
-0.021635591
-0.028085722
-0.020345565
-0.024215643
-0.038405931
-0.035825878
-0.013895434
-0.022925617
-0.025505669
-0.0319558
-0.037115905
-0.057756322
-0.075816688
-0.043566035
-0.043566035
-0.073236636
-0.091297002
-0.075816688
-0.07839674
-0.080976793
-0.082266819
-0.074526662
-0.073236636
-0.070656584
-0.074526662
-0.07194661
-0.007445304
0.046735793
0.064796159
0.097046812
0.179608484
0.233789581
0.278940495
0.357632088
0.427293499
0.486634701
0.567906346
0.573066451
0.60660713
0.673688488
0.767860395
0.858162223
0.908473242
0.9755546
1.012965358
1.052956168
1.049086089
1.024575593
1.005225201
1.050376115
1.087786873
1.130357735
1.1187475
1.094237003
1.073596586
1.01554541
0.971684522
0.885252772
0.789790839
0.726579559
0.660788227
0.588546764
0.521465406
0.429873551
0.339571723
0.262170156
0.189928693
0.106076995
0.026095375
-0.024215643
-0.099037158
-0.167408543
-0.230619823
-0.297701181
-0.31447152
-0.309311416
-0.310601442
-0.280930841
-0.270610632
-0.282220867
-0.259000397
-0.277060763
-0.282220867
-0.301571259
-0.297701181
-0.242230058
-0.185468908
-0.131287811
-0.100327184
-0.106777315
-0.140317994
-0.155798308
-0.175148699
-0.172568647
-0.15837836
-0.14160802
-0.145478099
-0.15837836
-0.145478099
-0.159668386
-0.186758935
-0.2048193
-0.237069953
-0.211269431
-0.217719561
-0.197079143
-0.166118517
-0.208689379
-0.251260241
-0.22158964
-0.189338987
-0.18159883
-0.163538464
-0.151928229
-0.169988595
-0.184178882
-0.179018778
-0.16482849
-0.190629013
-0.222879666
-0.203529274
-0.177728752
-0.155798308
-0.148058151
-0.163538464
-0.169988595
-0.162248438
-0.149348177
-0.168698569
-0.186758935
-0.180308804
-0.182888856
-0.188048961
-0.146768125
-0.108067341
-0.131287811
-0.142898046
-0.11193742
-0.136447916
-0.149348177
-0.101617211
-0.106777315
-0.131287811
-0.148058151
-0.126127707
-0.124837681
-0.114517472
-0.101617211
-0.109357367
-0.109357367
-0.105487289
-0.091297002
-0.074526662
-0.07839674
-0.093877054
-0.092587028
-0.092587028
-0.128707759
-0.127417733
-0.096457106
-0.090006975
-0.105487289
-0.113227446
-0.105487289
-0.077106714
-0.05517627
-0.050016166
-0.062916427
-0.097747132
-0.105487289
-0.090006975
-0.084846871
-0.102907237
-0.087426923
-0.079686766
-0.05517627
-0.052596218
-0.04872614
-0.033245826
-0.040985983
-0.073236636
-0.101617211
-0.080976793
-0.073236636
-0.07839674
-0.059046349
-0.051306192
-0.059046349
-0.047436113
-0.037115905
-0.024215643
-0.010025356
-0.037115905
-0.042276009
-0.039695957
-0.047436113
-0.044856061
-0.064206453
-0.069366558
-0.066786505
-0.040985983
-0.040985983
-0.028085722
-0.040985983
-0.04872614
-0.062916427
-0.073236636
-0.065496479
-0.025505669
-0.007445304
-0.00873533
0.002874905
-0.007445304
-0.022925617
-0.040985983
0.000294853
0.019645245
-0.006155278
-0.006155278
0.005454957
-0.038405931
-0.029375748
-0.006155278
-0.033245826
-0.043566035
0.010615062
-0.000995173
-0.042276009
-0.042276009
-0.012605408
0.004164931
0.027385402
0.044155741
0.029965454
0.033835532
0.028675428
0.005454957
0.005454957
0.032545506
0.040285663
0.051895898
0.058346028
0.067376211
0.066086185
0.048025819
0.057056002
0.062216107
0.080276472
0.049315846
0.066086185
0.07769642
0.050605872
0.053185924
0.05447595
0.075116368
0.102206917
0.078986446
0.103496943
0.125427387
0.102206917
0.062216107
0.082856525
0.116397204
0.126717413
0.115107178
0.131877517
0.104786969
0.104786969
0.112527126
0.137037622
0.161548118
0.137037622
0.138327648
0.130587491
0.125427387
0.121557308
0.112527126
0.113817152
0.120267282
0.112527126
0.128007439
0.125427387
0.133167543
0.144777779
0.149937883
0.156388014
0.133167543
0.111237099
0.122847334
0.139617674
0.131877517
0.112527126
0.107367021
0.139617674
0.161548118
0.149937883
0.144777779
0.121557308
0.093176734
0.064796159
0.066086185
0.099626864
0.112527126
0.120267282
0.130587491
0.099626864
0.064796159
0.066086185
0.060926081
0.049315846
0.062216107
0.076406394
0.093176734
0.072536316
0.063506133
0.029965454
0.03125548
0.032545506
0.017065193
0.000294853
0.017065193
0.01448514
0.042865715
0.029965454
-0.053886244
-0.05517627
-0.043566035
-0.033245826
-0.087426923
-0.113227446
-0.075816688
-0.011315382
-0.021635591
-0.127417733
-0.142898046
-0.099037158
-0.092587028
-0.079686766
-0.117097524
-0.162248438
-0.160958412
-0.129997785
-0.144188073
-0.123547655
-0.155798308
-0.18159883
-0.173858673
-0.146768125
-0.153218255
-0.157088334
-0.182888856
-0.212559457
-0.211269431
-0.19836917
-0.177728752
-0.180308804
-0.172568647
-0.180308804
-0.197079143
-0.206109326
-0.200949222
-0.200949222
-0.207399352
-0.199659196
-0.197079143
-0.200949222
-0.239650005
-0.252550267
-0.224169692
-0.172568647
-0.159668386
-0.202239248
-0.215139509
-0.212559457
-0.219009588
-0.233199875
-0.2048193
-0.199659196
-0.188048961
-0.163538464
-0.206109326
-0.222879666
-0.215139509
-0.225459718
-0.234489901
-0.225459718
-0.216429535
-0.219009588
-0.222879666
-0.212559457
-0.22158964
-0.237069953
-0.229329797
-0.200949222
-0.213849483
-0.203529274
-0.215139509
-0.216429535
-0.182888856
-0.149348177
-0.179018778
-0.186758935
-0.140317994
-0.132577837
-0.173858673
-0.167408543
-0.148058151
-0.150638203
-0.124837681
-0.092587028
-0.123547655
-0.162248438
-0.153218255
-0.151928229
-0.182888856
-0.173858673
-0.175148699
-0.157088334
-0.163538464
-0.145478099
-0.18159883
-0.202239248
-0.173858673
-0.163538464
-0.169988595
-0.182888856
-0.185468908
-0.173858673
-0.142898046
-0.11193742
-0.140317994
-0.148058151
-0.132577837
-0.126127707
-0.11838755
-0.110647393
-0.104197263
-0.113227446
-0.129997785
-0.129997785
-0.100327184
-0.070656584
-0.07839674
-0.099037158
-0.102907237
-0.100327184
-0.102907237
-0.097747132
-0.068076531
-0.034535852
-0.066786505
-0.080976793
-0.102907237
-0.091297002
-0.083556845
-0.064206453
-0.064206453
-0.077106714
-0.077106714
-0.068076531
-0.061626401
-0.079686766
-0.086136897
-0.073236636
-0.092587028
-0.087426923
-0.084846871
-0.075816688
-0.075816688
-0.087426923
-0.093877054
-0.097747132
-0.106777315
-0.097747132
-0.088716949
-0.093877054
-0.07839674
-0.093877054
-0.096457106
-0.088716949
-0.070656584
-0.061626401
-0.047436113
-0.028085722
-0.074526662
-0.104197263
-0.092587028
-0.065496479
-0.056466296
-0.090006975
-0.083556845
-0.022925617
-0.021635591
-0.080976793
-0.074526662
-0.096457106
-0.102907237
-0.04872614
-0.038405931
-0.025505669
-0.037115905
-0.04872614
-0.057756322
-0.082266819
-0.066786505
-0.066786505
-0.057756322
-0.035825878
-0.028085722
-0.024215643
-0.057756322
-0.046146087
-0.037115905
-0.019055539
-0.039695957
-0.047436113
-0.037115905
-0.040985983
-0.062916427
-0.066786505
-0.029375748
-0.022925617
-0.016475487
-0.021635591
-0.026795696
-0.035825878
-0.034535852
-0.0319558
-0.025505669
-0.047436113
-0.046146087
-0.010025356
0.010615062
-0.012605408
-0.069366558
-0.044856061
0.020935271
-0.012605408
0.000294853
0.002874905
-0.0319558
-0.047436113
-0.057756322
-0.04872614
-0.057756322
-0.059046349
-0.038405931
-0.0319558
-0.026795696
-0.002285199
0.010615062
0.000294853
-0.010025356
-0.029375748
-0.006155278
0.018355219
0.019645245
-0.003575225
-0.002285199
-0.025505669
-0.00873533
0.017065193
0.019645245
-0.010025356
0.005454957
0.009325036
-0.035825878
-0.047436113
-0.006155278
-0.021635591
-0.051306192
-0.042276009
-0.030665774
-0.029375748
-0.026795696
-0.042276009
-0.05517627
-0.052596218
-0.044856061
-0.053886244
-0.077106714
-0.080976793
-0.043566035
0.00803501
0.020935271
-0.01518546
-0.025505669
-0.039695957
-0.037115905
-0.035825878
-0.042276009
-0.011315382
0.050605872
0.068666237
0.028675428
-0.060336375
-0.077106714
-0.026795696
0.038995637
0.023515323
-0.034535852
-0.097747132
-0.065496479
-0.00873533
-0.012605408
-0.006155278
-0.017765513
-0.047436113
-0.034535852
-0.035825878
-0.0319558
-0.011315382
-0.011315382
-0.040985983
-0.026795696
0.001584879
0.022225297
0.019645245
0.01448514
0.035125558
0.01448514
-0.003575225
-0.017765513
0.010615062
0.029965454
0.024805349
0.020935271
0.032545506
0.053185924
0.044155741
-0.012605408
-0.038405931
0.00803501
0.035125558
0.022225297
-0.01518546
-0.000995173
0.010615062
0.013195114
0.004164931
0.00803501
-0.004865251
-0.013895434
-0.028085722
0.000294853
0.038995637
0.024805349
0.026095375
0.020935271
0.03125548
-0.017765513
-0.006155278
0.009325036
-0.000995173
-0.035825878
-0.002285199
0.004164931
0.013195114
0.015775166
0.044155741
0.09446676
0.113817152
0.060926081
0.000294853
-0.010025356
0.040285663
0.073826342
0.057056002
0.058346028
0.067376211
0.073826342
0.076406394
0.059636055
0.024805349
0.006744984
0.006744984
-0.002285199
-0.012605408
-0.000995173
0.010615062
0.029965454
0.036415584
0.002874905
0.013195114
0.013195114
-0.002285199
-0.019055539
-0.003575225
0.032545506
0.020935271
0.033835532
0.027385402
0.044155741
0.038995637
0.01448514
0.00803501
0.011905088
0.026095375
0.032545506
0.035125558
0.027385402
0.048025819
0.046735793
0.024805349
0.049315846
0.058346028
0.019645245
0.002874905
0.038995637
0.089306655
0.07124629
0.060926081
0.017065193
0.001584879
0.004164931
0.042865715
0.045445767
0.017065193
0.011905088
0.028675428
0.059636055
0.053185924
0.019645245
0.019645245
0.03125548
0.024805349
0.013195114
0.01448514
0.024805349
0.046735793
0.067376211
0.082856525
0.038995637
0.055765976
0.07124629
0.023515323
0.046735793
0.05447595
0.051895898
0.053185924
0.059636055
0.078986446
0.058346028
0.053185924
0.028675428
0.024805349
0.038995637
0.026095375
0.040285663
0.050605872
0.038995637
0.000294853
0.010615062
0.027385402
0.048025819
0.027385402
0.018355219
0.022225297
0.029965454
0.035125558
0.01448514
0.027385402
0.010615062
0.00803501
0.009325036
0.036415584
0.028675428
0.017065193
0.011905088
-0.00873533
-0.004865251
0.000294853
0.001584879
0.028675428
0.059636055
0.07124629
0.072536316
0.023515323
0.001584879
0.020935271
0.048025819
0.063506133
0.072536316
0.067376211
0.064796159
0.057056002
0.055765976
0.044155741
0.029965454
0.00803501
0.027385402
0.066086185
0.051895898
0.041575689
0.036415584
0.063506133
0.07124629
0.026095375
-0.012605408
0.020935271
0.036415584
0.051895898
0.060926081
0.040285663
0.024805349
0.027385402
0.049315846
0.050605872
0.045445767
0.037705611
0.015775166
0.046735793
0.082856525
0.03125548
0.033835532
0.042865715
0.053185924
0.072536316
0.069956264
0.055765976
0.068666237
0.069956264
0.046735793
0.000294853
0.002874905
0.036415584
0.078986446
0.09446676
0.060926081
0.048025819
0.028675428
0.011905088
0.020935271
0.040285663
0.082856525
0.067376211
0.037705611
0.044155741
0.058346028
0.055765976
0.045445767
0.013195114
0.028675428
0.033835532
0.023515323
0.01448514
0.011905088
0.068666237
0.084146551
0.053185924
0.046735793
0.037705611
0.068666237
0.082856525
0.05447595
0.005454957
-0.013895434
0.011905088
0.019645245
0.015775166
0.042865715
0.059636055
0.05447595
0.035125558
0.020935271
0.01448514
0.006744984
-0.002285199
0.020935271
0.013195114
0.002874905
0.000294853
0.022225297
0.057056002
0.051895898
0.044155741
0.062216107
0.042865715
0.057056002
0.036415584
0.060926081
0.091886708
0.084146551
0.055765976
0.044155741
0.073826342
0.07769642
0.09446676
0.103496943
0.090596681
0.064796159
0.082856525
0.082856525
0.063506133
0.044155741
0.046735793
0.082856525
0.07769642
0.059636055
0.053185924
0.069956264
0.089306655
0.082856525
0.091886708
0.108657047
0.118977256
0.124137361
0.09446676
0.063506133
0.075116368
0.098336838
0.147357831
0.167998249
0.152517935
0.133167543
0.129297465
0.102206917
0.10091689
0.080276472
0.111237099
0.1409077
0.128007439
0.076406394
0.095756786
0.13445757
0.128007439
0.102206917
0.069956264
0.067376211
0.059636055
0.037705611
0.046735793
0.07769642
0.068666237
0.038995637
0.03125548
0.020935271
0.013195114
0.029965454
0.010615062
-0.010025356
-0.016475487
-0.017765513
-0.012605408
-0.013895434
0.006744984
0.022225297
-0.003575225
-0.025505669
-0.006155278
0.015775166
-0.002285199
-0.021635591
-0.013895434
0.006744984
0.026095375
0.045445767
0.01448514
0.011905088
0.015775166
-0.030665774
-0.057756322
-0.050016166
-0.00873533
0.035125558
0.022225297
-0.01518546
-0.025505669
-0.007445304
-0.026795696
-0.016475487
-0.012605408
-0.019055539
-0.030665774
-0.006155278
-0.012605408
-0.030665774
-0.012605408
0.009325036
0.055765976
0.005454957
-0.012605408
-0.013895434
-0.020345565
-0.035825878
-0.016475487
0.011905088
-0.020345565
-0.011315382
-0.016475487
-0.047436113
-0.046146087
-0.044856061
-0.061626401
-0.068076531
-0.066786505
-0.052596218
-0.070656584
-0.102907237
-0.129997785
-0.104197263
-0.086136897
-0.087426923
-0.079686766
-0.057756322
-0.059046349
-0.061626401
-0.050016166
-0.033245826
0.017065193
0.097046812
0.16412817
0.179608484
0.233789581
0.306031044
0.361502167
0.373112402
0.40020295
0.509855171
0.564036268
0.593706869
0.642727861
0.700779037
0.805271152
0.88267272
0.916213399
0.961364313
1.001355123
1.021995541
1.016835436
1.033605776
1.03231575
1.019415488
1.060696324
1.114877421
1.063276377
1.033605776
1.031025724
1.011675332
0.92911366
0.824621544
0.718839402
0.665948331
