0.273780391
0.262170156
0.26733026
0.275070417
0.264750208
0.260880129
0.251849947
0.281520547
0.299580913
0.297000861
0.264750208
0.259590103
0.25055992
0.264750208
0.2841006
0.318931305
0.282810573
0.287970678
0.281520547
0.282810573
0.303450991
0.316351253
0.326671462
0.3137712
0.3137712
0.312481174
0.287970678
0.291840756
0.302160965
0.273780391
0.269910312
0.295710835
0.294420809
0.300870939
0.33054154
0.325381435
0.299580913
0.320221331
0.320221331
0.280230521
0.298290887
0.316351253
0.326671462
0.3137712
0.30732107
0.335701644
0.343441801
0.324091409
0.339571723
0.33054154
0.269910312
0.245399816
0.249269894
0.280230521
0.3137712
0.315061226
0.277650469
0.272490364
0.280230521
0.286680652
0.277650469
0.289260704
0.308611096
0.304741018
0.302160965
0.299580913
0.282810573
0.320221331
0.327961488
0.317641279
0.271200338
0.25055992
0.254429999
0.297000861
0.291840756
0.264750208
0.255720025
0.241529738
0.231209529
0.202828954
0.20411898
0.187348641
0.178318458
0.206699032
0.195088797
0.205409006
0.198958876
0.201538928
0.193798771
0.160258092
0.149937883
0.130587491
0.139617674
0.122847334
0.103496943
0.093176734
0.088016629
0.133167543
0.109947073
0.089306655
0.060926081
0.023515323
0.002874905
0.005454957
0.015775166
0.010615062
-0.002285199
-0.046146087
-0.052596218
-0.07194661
-0.093877054
-0.091297002
-0.087426923
-0.117097524
-0.169988595
-0.203529274
-0.203529274
-0.239650005
-0.260290423
-0.288670998
-0.283510894
-0.28480092
-0.295121129
-0.306731364
-0.33124186
-0.322211677
-0.332531886
-0.364782539
-0.385422957
-0.403483323
-0.409933453
-0.389293035
-0.402193297
-0.407353401
-0.421543689
-0.433153924
-0.44089408
-0.416383584
-0.395743166
-0.41122348
-0.474434759
-0.475724786
-0.471854707
-0.477014812
-0.461534498
-0.460244472
-0.48088489
-0.492495125
-0.479594864
-0.458954446
-0.447344211
-0.404773349
-0.35446233
-0.344142121
-0.37123267
-0.406063375
-0.409933453
-0.413803532
-0.388003009
-0.346722174
-0.319631625
-0.317051573
-0.346722174
-0.349302226
-0.302861285
-0.313181494
-0.30802139
-0.287380972
-0.273190685
-0.302861285
-0.322211677
-0.320921651
-0.253840293
-0.222879666
-0.22158964
-0.238359979
-0.233199875
-0.229329797
-0.207399352
-0.197079143
-0.208689379
-0.18159883
-0.157088334
-0.163538464
-0.173858673
-0.190629013
-0.202239248
-0.179018778
-0.150638203
-0.133867864
-0.140317994
-0.148058151
-0.162248438
-0.168698569
-0.171278621
-0.139027968
-0.108067341
-0.106777315
-0.14160802
-0.145478099
-0.129997785
-0.145478099
-0.166118517
-0.160958412
-0.162248438
-0.167408543
-0.18159883
-0.173858673
-0.157088334
-0.182888856
-0.220299614
-0.211269431
-0.186758935
-0.184178882
-0.157088334
-0.168698569
-0.188048961
-0.197079143
-0.208689379
-0.231909849
-0.233199875
-0.207399352
-0.19836917
-0.193209065
-0.176438726
-0.177728752
-0.213849483
-0.224169692
-0.231909849
-0.231909849
-0.219009588
-0.219009588
-0.233199875
-0.251260241
-0.249970214
-0.246100136
-0.234489901
-0.224169692
-0.237069953
-0.22803977
-0.234489901
-0.249970214
-0.288670998
-0.278350789
-0.260290423
-0.260290423
-0.264160502
-0.257710371
-0.242230058
-0.246100136
-0.26158045
-0.264160502
-0.260290423
-0.255130319
-0.229329797
-0.211269431
-0.231909849
-0.255130319
-0.292541076
-0.259000397
-0.24481011
-0.238359979
-0.242230058
-0.260290423
-0.248680188
-0.259000397
-0.275770737
-0.280930841
-0.243520084
-0.233199875
-0.225459718
-0.217719561
-0.22158964
-0.226749744
-0.243520084
-0.220299614
-0.197079143
-0.206109326
-0.230619823
-0.209979405
-0.212559457
-0.219009588
-0.200949222
-0.211269431
-0.220299614
-0.222879666
-0.217719561
-0.217719561
-0.233199875
-0.235779927
-0.253840293
-0.234489901
-0.222879666
-0.219009588
-0.211269431
-0.208689379
-0.202239248
-0.211269431
-0.226749744
-0.234489901
-0.234489901
-0.219009588
-0.206109326
-0.191919039
-0.200949222
-0.200949222
-0.224169692
-0.235779927
-0.233199875
-0.199659196
-0.193209065
-0.219009588
-0.224169692
-0.211269431
-0.197079143
-0.206109326
-0.222879666
-0.233199875
-0.203529274
-0.208689379
-0.189338987
-0.193209065
-0.207399352
-0.171278621
-0.154508281
-0.155798308
-0.11838755
-0.109357367
-0.068076531
-0.000995173
0.038995637
0.07124629
0.118977256
0.16412817
0.266040234
0.346021853
0.378272506
0.458254126
0.535655693
0.610477208
0.682718671
0.734319716
0.752380081
0.869772458
0.974264574
1.005225201
1.054246194
1.16518844
1.203889224
1.21162938
1.215499459
1.201309172
1.229689746
1.287740922
1.344502071
1.397393142
1.379332776
1.332891836
1.277420713
1.234849851
1.237429903
1.207759302
1.130357735
1.03876588
0.966524418
0.907183216
0.82591157
0.754960134
0.680138619
0.645307913
0.553716059
0.491794805
0.43374363
0.362792193
0.293130782
0.236369633
0.191218719
0.137037622
0.106076995
0.081566499
0.084146551
0.081566499
0.073826342
0.078986446
0.068666237
0.029965454
0.042865715
0.086726603
0.080276472
0.080276472
0.07124629
0.063506133
0.073826342
0.082856525
0.063506133
0.055765976
0.053185924
0.080276472
0.060926081
0.033835532
0.029965454
0.023515323
0.01448514
-0.030665774
-0.07194661
-0.053886244
-0.059046349
-0.064206453
-0.053886244
-0.079686766
-0.115807498
-0.123547655
-0.109357367
-0.13515789
-0.145478099
-0.11193742
-0.117097524
-0.146768125
-0.140317994
-0.126127707
-0.153218255
-0.197079143
-0.207399352
-0.173858673
-0.182888856
-0.150638203
-0.146768125
-0.177728752
-0.19836917
-0.160958412
-0.155798308
-0.157088334
-0.200949222
-0.22803977
-0.190629013
-0.199659196
-0.166118517
-0.145478099
-0.153218255
-0.169988595
-0.173858673
-0.140317994
-0.128707759
-0.132577837
-0.148058151
-0.136447916
-0.124837681
-0.11193742
-0.117097524
-0.137737942
-0.136447916
-0.109357367
-0.070656584
-0.05517627
-0.05517627
-0.035825878
-0.021635591
-0.034535852
-0.050016166
-0.029375748
-0.033245826
-0.013895434
-0.026795696
-0.028085722
0.019645245
0.063506133
0.062216107
0.051895898
0.063506133
0.060926081
0.042865715
0.045445767
0.090596681
0.120267282
0.109947073
0.098336838
0.099626864
0.126717413
0.156388014
0.15767804
0.129297465
0.143487752
0.153807961
0.152517935
0.1409077
0.133167543
0.137037622
0.16412817
0.188638667
0.207989058
0.22088932
0.226049424
0.25055992
0.273780391
0.257010051
0.229919503
0.255720025
0.257010051
0.272490364
0.29055073
0.325381435
0.339571723
0.348601906
0.348601906
0.366662271
0.355052036
0.357632088
0.392462794
0.397622898
0.402783003
0.424713447
0.435033656
0.4569641
0.491794805
0.517595327
0.502115014
0.524045458
0.542105824
0.553716059
0.573066451
0.584676686
0.597576947
0.610477208
0.616927339
0.625957522
0.647887966
0.685298723
0.685298723
0.662078253
0.685298723
0.700779037
0.73302969
0.77947063
0.789790839
0.780760656
0.8026911
0.831071675
0.834941753
0.840101858
0.84268191
0.838811832
0.822041492
0.860742276
0.890412876
0.895572981
0.914923373
0.930403686
0.944593973
0.95233413
0.976844626
0.979424679
0.976844626
0.980714705
0.974264574
1.012965358
1.03231575
1.05553622
1.080046716
1.072306559
1.063276377
1.085206821
1.100687134
1.103267186
1.103267186
1.111007343
1.121327552
1.099397108
1.076176638
1.069726507
1.07875669
1.113587395
1.138097892
1.129067709
1.09552703
1.068436481
1.082626768
1.098107082
1.090366925
1.105847239
1.123907604
1.163898414
1.18840891
1.179378727
1.156158257
1.183248806
1.197439093
1.194859041
1.20517925
1.227109694
1.206469276
1.230979772
1.292901026
1.327731731
1.31483147
1.295481078
1.307091313
1.326441705
1.329021757
1.321281601
1.409003377
1.470924631
1.461894448
1.448994187
1.434803899
1.450284213
1.450284213
1.48124484
1.485114918
1.518655597
1.528975806
1.52768578
1.498015179
1.552196276
1.566386564
1.54445612
1.510915441
1.516075545
1.516075545
1.52768578
1.526395754
1.531555858
1.516075545
1.512205467
1.530265832
1.525105728
1.512205467
1.526395754
1.523815702
1.509625414
1.455444317
1.439964004
1.437383952
1.452864265
1.439964004
1.425773717
1.411583429
1.412873455
1.419323586
1.42448369
1.399973194
1.363852463
1.332891836
1.329021757
1.307091313
1.309671366
1.296771104
1.289030948
1.26839053
1.258070321
1.210339354
1.202599198
1.179378727
1.136807865
1.135517839
1.127777683
1.085206821
1.069726507
0.980714705
0.978134653
0.978134653
0.931693712
0.896863007
0.851712093
0.833651727
0.822041492
0.801401074
0.749800029
0.705939141
0.696908958
0.638857783
0.58983679
0.593706869
0.574356477
0.536945719
0.500824988
0.469864361
0.44019376
0.43374363
0.420843368
0.411813186
0.395042846
0.39375282
0.335701644
0.286680652
0.286680652
0.26733026
0.251849947
0.268620286
0.291840756
0.278940495
0.268620286
0.257010051
0.207989058
0.165418196
0.167998249
0.187348641
0.186058614
0.162838144
0.137037622
0.1409077
0.138327648
0.126717413
0.133167543
0.139617674
0.120267282
0.086726603
0.111237099
0.129297465
0.109947073
0.086726603
0.075116368
0.076406394
0.089306655
0.090596681
0.093176734
0.076406394
0.053185924
-0.003575225
-0.010025356
-0.019055539
-0.013895434
-0.01518546
-0.042276009
-0.053886244
-0.047436113
-0.040985983
-0.037115905
-0.070656584
-0.168698569
-0.242230058
-0.202239248
-0.179018778
-0.184178882
-0.188048961
-0.176438726
-0.19836917
-0.230619823
-0.274480711
-0.313181494
-0.341562069
-0.349302226
-0.35446233
-0.397033192
-0.422833715
-0.429283845
-0.430573871
-0.455084368
-0.49765523
-0.5208757
-0.564736588
-0.59053711
-0.608597476
-0.60730745
-0.624077789
-0.667938678
-0.688579096
-0.698899304
-0.695029226
-0.706639461
-0.751790375
-0.771140767
-0.778880924
-0.795651264
-0.833062021
-0.812421603
-0.812421603
-0.808551525
-0.896273301
-0.902723432
-0.851122387
-0.821451786
-0.824031838
-0.873052831
-0.92981398
-0.925943902
-0.959484581
-1.002055443
-0.968514764
-0.928523954
-0.94658432
-0.96980479
-0.958194555
-0.981415025
-1.020115809
-1.051076435
-1.067846775
-1.066556749
-1.114287715
-1.151698473
-1.151698473
-1.185239152
-1.216199779
-1.22264991
-1.240710275
-1.247160406
-1.25232051
-1.278121033
-1.324561973
-1.349072469
-1.399383488
-1.443244376
-1.456144637
-1.461304742
-1.492265369
-1.484525212
-1.48839529
-1.542576388
-1.573537014
-1.592887406
-1.609657746
-1.649648556
-1.687059313
-1.715439888
-1.73479028
-1.736080306
-1.752850645
-1.759300776
-1.779941194
-1.819932004
-1.871533048
-1.893463492
-1.917973989
-1.911523858
-1.915393936
-1.941194459
-1.95409472
-1.983765321
-2.046976601
-2.085677384
-2.114057959
-2.141148508
-2.130828299
-2.129538273
-2.160498899
-2.195329605
-2.237900467
-2.252090754
-2.25338078
-2.250800728
-2.292081564
-2.31659206
-2.343682609
-2.388833523
-2.414634045
-2.409473941
-2.408183915
-2.440434568
-2.46623509
-2.520416187
-2.54621671
-2.52944637
-2.524286265
-2.533316448
-2.584917493
-2.614588094
-2.613298068
-2.605557911
-2.619748198
-2.624908303
-2.640388616
-2.667479165
-2.663609087
-2.664899113
-2.667479165
-2.670059217
-2.684249504
-2.686829557
-2.680379426
-2.657158956
-2.713920105
-2.726820366
-2.708760001
-2.706179949
-2.706179949
-2.722950288
-2.744880732
-2.735850549
-2.722950288
-2.720370236
-2.698439792
-2.698439792
-2.704889922
-2.71908021
-2.710050027
-2.70230987
-2.685539531
-2.680379426
-2.728110393
-2.74230068
-2.734560523
-2.659739008
-2.633938486
-2.668769191
-2.680379426
-2.645548721
-2.617168146
-2.617168146
-2.623618277
-2.63264846
-2.619748198
-2.574597284
-2.508805952
-2.497195717
-2.508805952
-2.501065795
-2.448174724
-2.41979415
-2.450754777
-2.428824333
-2.405603862
-2.39657368
-2.382383392
-2.375933262
-2.378513314
-2.397863706
-2.387543497
-2.360452948
-2.325622243
-2.304981825
-2.290791538
-2.284341407
-2.301111747
-2.308851903
-2.285631433
-2.258540885
-2.235320414
-2.219840101
-2.1901695
-2.186299422
-2.169529082
-2.156628821
-2.128248246
-2.125668194
-2.139858481
-2.14372856
-2.112767933
-2.128248246
-2.083097332
-2.021176078
-2.005695765
-2.014725948
-2.03407634
-2.04052647
-2.026336183
-2.016015974
-1.988925425
-1.943774511
-1.908943806
-1.90765378
-1.955384746
-1.968285007
-1.963124903
-1.981185269
-1.986345373
-1.936034354
-1.937324381
-1.946354563
-1.945064537
-1.948934616
-1.946354563
-1.951514668
-1.961834877
-1.981185269
-1.974735138
-1.959254825
-1.978605216
-1.972155086
-1.995375556
-2.014725948
-2.043106522
-2.068907045
-2.052136705
-2.071487097
-2.090837489
-2.139858481
-2.172109134
-2.173399161
-2.191459526
-2.218550075
-2.252090754
-2.292081564
-2.328202295
-2.35658287
-2.393993627
-2.436564489
-2.485585482
-2.516546109
-2.55266684
-2.593947676
-2.641678642
-2.691989661
-2.778421411
-2.858403031
-2.871303292
-2.929354467
-2.921614311
-2.870013266
-2.836472587
-2.808092012
-2.751330863
-2.670059217
-2.642968669
-2.597817754
-2.520416187
-2.470105168
-2.421084176
-2.286921459
-2.15017869
-2.049556653
-1.966994981
-1.906363754
-1.85089263
-1.812191847
-1.772201037
-1.729630175
-1.697379522
-1.676739104
-1.653518634
-1.643198425
-1.626428085
-1.524516022
-1.475495029
-1.448404481
-1.390353305
-1.327142025
-1.318111842
-1.283281137
-1.231680092
-1.238130223
-1.185239152
-1.10267748
-1.054946514
-1.025275913
-0.971094816
-0.910463588
-0.854992465
-0.807261499
-0.754370428
-0.728569905
-0.729859931
-0.706639461
-0.640848129
-0.589247084
-0.576346823
-0.581506927
-0.519585674
-0.458954446
-0.420253662
-0.382842905
-0.346722174
-0.251260241
-0.191919039
-0.168698569
-0.155798308
-0.177728752
-0.189338987
-0.088716949
0.026095375
0.115107178
0.139617674
0.13445757
0.192508745
0.253139973
0.280230521
0.316351253
0.378272506
0.401492977
0.46341423
0.486634701
0.515015275
0.505985092
0.52017538
0.600156999
0.638857783
0.66981841
0.678848593
0.711099246
0.751090055
0.749800029
0.797530996
0.831071675
0.834941753
0.856872197
0.887832824
0.896863007
0.917503425
0.942013921
0.980714705
1.014255384
1.027155645
1.024575593
1.042635959
1.052956168
1.074886612
1.090366925
1.090366925
1.098107082
1.1187475
1.132937787
1.152288179
1.183248806
1.201309172
1.196149067
1.18840891
1.200019145
1.240009955
1.25162019
1.26839053
1.252910216
1.247750112
1.259360347
1.252910216
1.278710739
1.289030948
1.322571627
1.310961392
1.276130687
1.256780295
1.263230425
1.240009955
1.283870843
1.276130687
1.230979772
1.232269798
1.233559825
1.277420713
1.273550634
1.260650373
1.243880033
1.240009955
1.190988963
1.184538832
1.179378727
1.180668754
1.201309172
1.241299981
1.270970582
1.250330164
1.218079511
1.192278989
1.223239616
1.223239616
1.219369537
1.230979772
1.234849851
1.218079511
1.20517925
1.194859041
1.183248806
1.180668754
1.170348545
1.200019145
1.237429903
1.240009955
1.249040138
1.259360347
1.212919407
1.20517925
1.216789485
1.216789485
1.233559825
1.26839053
1.255490269
1.238719929
1.220659563
1.238719929
1.236139877
1.249040138
1.290320974
1.298061131
1.269680556
1.246460086
1.26839053
1.259360347
1.291611
1.327731731
1.316121496
1.322571627
1.356112306
1.33805194
1.313541444
1.303221235
1.321281601
1.327731731
1.35482228
1.372882646
1.362562437
1.334181862
1.318701549
1.295481078
1.286450895
1.291611
1.285160869
1.312251418
1.35482228
1.330311784
1.312251418
1.325151679
1.33805194
1.336761914
1.344502071
1.33160181
1.307091313
1.307091313
1.35482228
1.37804275
1.380622802
1.371592619
1.385782907
1.381912828
1.37804275
1.388362959
1.398683168
1.407713351
1.416743534
1.434803899
1.429643795
1.393523064
1.421903638
1.430933821
1.447704161
1.447704161
1.467054552
1.452864265
1.467054552
1.499305205
1.522525676
1.552196276
1.556066355
1.521235649
1.540586041
1.559936433
1.577996799
1.572836694
1.593477112
1.625727765
1.639918053
1.656688392
1.655398366
1.673458732
1.692809124
1.685068967
1.692809124
1.734089959
1.748280247
1.714739568
1.718609646
1.75731043
1.75731043
1.770210691
1.754730377
1.783110952
1.798591265
1.789561083
1.785691004
1.785691004
1.777950848
1.801171318
1.805041396
1.823101762
1.824391788
1.84374218
1.875992833
1.878572885
1.894053198
1.931463956
1.919853721
1.917273669
1.93662406
1.950814348
1.968874713
1.957264478
1.955974452
1.959844531
1.955974452
1.941784165
1.955974452
1.995965262
2.015315654
2.025635863
2.012735602
1.97661487
1.962424583
1.967584687
1.975324844
1.995965262
1.992095184
1.994675236
2.010155549
2.030795967
2.014025628
1.998545314
2.012735602
2.021765784
2.008865523
1.967584687
1.945654243
1.974034818
2.006285471
2.010155549
2.002415393
1.99338521
1.998545314
2.010155549
1.974034818
1.948234295
1.955974452
1.950814348
1.918563695
1.894053198
1.922433773
1.905663433
1.903083381
1.935334034
1.948234295
1.883732989
1.845032206
1.841162127
1.863092571
1.879862911
1.887603068
1.854062389
1.825681814
1.845032206
1.856642441
1.87341278
1.854062389
1.828261866
1.855352415
1.85019231
1.819231683
1.852772363
1.829551892
1.781820926
1.84374218
1.857932467
1.814071579
1.790851109
1.788271056
1.797301239
1.777950848
1.771500717
1.766340612
1.772790743
1.772790743
1.78698103
1.792141135
1.805041396
1.811491527
1.815361605
1.796011213
1.784400978
1.78698103
1.783110952
1.789561083
1.775370795
1.752150325
1.739250064
1.725059777
1.74054009
1.735379986
1.673458732
1.628307818
1.593477112
1.557356381
1.539296015
1.528975806
1.48769497
1.472214657
1.492855075
1.539296015
1.503175284
1.459314396
1.411583429
1.425773717
1.451574239
1.429643795
1.42448369
1.469634605
1.488984996
1.514785519
1.519945623
1.558646407
1.606377373
1.661848497
1.70054928
1.703129333
1.739250064
1.798591265
1.824391788
1.825681814
1.82697184
1.860512519
1.892763172
1.915983642
1.959844531
2.035956072
2.054016437
2.030795967
1.952104374
1.935334034
1.941784165
1.943074191
1.949524322
1.935334034
1.905663433
1.895343225
1.856642441
1.807621448
1.758600456
1.676038784
1.556066355
1.451574239
1.374172672
1.261940399
1.185828858
1.145838048
1.041345933
0.876222589
0.792370891
0.730449637
0.640147809
0.535655693
0.473734439
0.407943107
0.3137712
0.266040234
0.273780391
0.245399816
0.22088932
0.198958876
0.162838144
0.133167543
0.124137361
0.165418196
0.191218719
0.184768588
0.16412817
0.166708223
0.160258092
0.147357831
0.13445757
0.130587491
0.139617674
0.183478562
0.147357831
0.085436577
0.063506133
0.064796159
0.019645245
0.009325036
0.00803501
0.017065193
-0.007445304
-0.029375748
-0.066786505
-0.07839674
-0.104197263
-0.131287811
-0.126127707
-0.126127707
-0.100327184
-0.077106714
-0.097747132
-0.191919039
-0.233199875
-0.219009588
-0.197079143
-0.202239248
-0.249970214
-0.287380972
-0.283510894
-0.280930841
-0.293831103
-0.315761547
-0.327371782
-0.335111938
-0.351882278
-0.380262853
-0.403483323
-0.397033192
-0.378972827
-0.385422957
-0.39445314
-0.400903271
-0.403483323
-0.421543689
-0.43444395
-0.427993819
-0.418963636
-0.443474133
-0.469274655
-0.48088489
-0.455084368
-0.447344211
-0.447344211
-0.455084368
-0.488625047
-0.482174916
-0.449924263
-0.447344211
-0.466694603
-0.477014812
-0.49765523
-0.50410536
-0.492495125
-0.477014812
-0.48088489
-0.487335021
-0.470564681
-0.461534498
-0.45766442
-0.446054185
-0.447344211
-0.449924263
-0.458954446
-0.451214289
-0.446054185
-0.41767361
-0.408643427
-0.407353401
-0.407353401
-0.362202487
-0.329951834
-0.288670998
-0.286090946
-0.344142121
-0.346722174
-0.270610632
-0.271900658
-0.251260241
-0.251260241
-0.252550267
-0.255130319
-0.215139509
-0.188048961
-0.175148699
-0.191919039
-0.167408543
-0.162248438
-0.11838755
-0.148058151
-0.154508281
-0.119677576
-0.090006975
-0.100327184
-0.093877054
-0.099037158
-0.080976793
-0.082266819
-0.073236636
-0.069366558
-0.050016166
-0.043566035
-0.060336375
-0.069366558
-0.07194661
-0.092587028
-0.09516708
-0.060336375
-0.016475487
-0.017765513
-0.074526662
-0.079686766
-0.061626401
-0.028085722
-0.05517627
-0.05517627
0.013195114
0.022225297
-0.00873533
-0.053886244
-0.051306192
-0.040985983
-0.033245826
-0.024215643
-0.012605408
-0.033245826
-0.050016166
-0.066786505
-0.077106714
-0.090006975
-0.091297002
-0.091297002
-0.097747132
-0.075816688
-0.096457106
-0.09516708
-0.115807498
-0.108067341
-0.09516708
-0.115807498
-0.168698569
-0.202239248
-0.200949222
-0.202239248
-0.184178882
-0.189338987
-0.191919039
-0.230619823
-0.277060763
-0.283510894
-0.286090946
-0.243520084
-0.231909849
-0.208689379
-0.185468908
-0.203529274
-0.239650005
-0.26158045
-0.230619823
-0.191919039
-0.154508281
-0.148058151
-0.145478099
-0.113227446
-0.082266819
-0.042276009
-0.011315382
-0.013895434
-0.029375748
-0.079686766
-0.07194661
-0.007445304
0.038995637
0.064796159
0.059636055
0.049315846
0.076406394
0.118977256
0.16412817
0.131877517
0.155097988
0.152517935
0.174448379
0.193798771
0.162838144
0.174448379
0.187348641
0.211859137
0.246689842
0.268620286
0.273780391
0.291840756
0.324091409
0.29055073
0.260880129
0.262170156
0.280230521
0.3137712
0.308611096
0.258300077
0.262170156
0.2841006
0.311191148
0.30732107
0.285390626
0.237659659
0.276360443
0.255720025
0.206699032
0.196378823
0.193798771
0.166708223
0.156388014
0.124137361
0.085436577
0.107367021
0.089306655
0.037705611
0.042865715
0.029965454
0.000294853
-0.01518546
-0.025505669
-0.077106714
-0.101617211
-0.091297002
-0.097747132
-0.123547655
-0.160958412
-0.184178882
-0.194499091
-0.191919039
-0.202239248
-0.199659196
-0.249970214
-0.270610632
-0.286090946
-0.302861285
-0.310601442
-0.333821912
-0.353172304
-0.372522696
-0.363492513
-0.382842905
-0.391873088
-0.399613244
-0.442184106
-0.469274655
-0.486044995
-0.462824524
-0.433153924
-0.422833715
-0.455084368
-0.488625047
-0.484754968
-0.491205099
-0.498945256
-0.513135543
-0.482174916
-0.456374394
-0.486044995
-0.48088489
-0.477014812
-0.455084368
-0.437024002
-0.425413767
-0.460244472
-0.473144733
-0.471854707
-0.491205099
-0.467984629
-0.437024002
-0.430573871
-0.487335021
-0.531195909
-0.510555491
-0.498945256
-0.514425569
-0.50410536
-0.502815334
-0.498945256
-0.5208757
-0.487335021
-0.518295648
-0.558286457
-0.566026614
-0.550546301
-0.513135543
-0.491205099
-0.507975439
-0.556996431
-0.599567293
-0.643428181
-0.643428181
-0.674388808
-0.661488547
-0.625367816
-0.639558103
-0.691159148
-0.718249696
-0.758240506
-0.778880924
-0.822741812
-0.851122387
-0.865312674
-0.885953092
-0.904013458
-0.904013458
-0.911753614
-0.931104006
-0.94658432
-0.959484581
-0.994315286
-1.0097956
-1.013665678
-1.053656488
-1.053656488
-1.035596122
-1.0097956
-1.025275913
-1.083327089
-1.10267748
-1.088487193
-1.082037062
-1.03301607
-1.013665678
-1.035596122
-1.058816592
-1.078166984
-1.071716853
-1.040756227
-1.012375652
-0.994315286
-1.008505573
-0.994315286
-0.968514764
-0.949164372
-0.901433405
-0.880792988
-0.873052831
-0.862732622
-0.862732622
-0.844672256
-0.800811368
-0.785331055
-0.802101394
-0.767270689
-0.74018014
-0.731149958
-0.719539722
-0.700189331
-0.67051873
-0.643428181
-0.60730745
-0.542806144
-0.523455752
-0.54409617
-0.540226092
-0.500235282
-0.467984629
-0.43444395
-0.438314028
-0.437024002
-0.393163114
-0.378972827
-0.381552879
-0.398323218
-0.388003009
-0.41767361
-0.424123741
-0.407353401
-0.43444395
-0.448634237
-0.474434759
-0.536356013
-0.564736588
-0.526035804
-0.48088489
-0.464114551
-0.514425569
-0.56731664
-0.572476745
-0.558286457
-0.538936066
-0.558286457
-0.56731664
-0.558286457
-0.568606666
-0.585377006
-0.575056797
-0.563446562
-0.586667032
-0.594407189
-0.589247084
-0.554416379
-0.555706405
-0.549256274
-0.547966248
-0.533775961
-0.5208757
-0.505395386
-0.456374394
-0.453794342
-0.433153924
-0.404773349
-0.399613244
-0.385422957
-0.364782539
-0.323501703
-0.298991207
-0.30802139
-0.327371782
-0.298991207
-0.283510894
-0.300281233
-0.304151312
-0.259000397
-0.207399352
-0.226749744
-0.256420345
-0.260290423
-0.230619823
-0.200949222
-0.2048193
-0.182888856
-0.140317994
-0.132577837
-0.128707759
-0.127417733
-0.145478099
-0.148058151
-0.115807498
-0.100327184
-0.122257628
-0.133867864
-0.099037158
-0.050016166
-0.043566035
-0.033245826
-0.07839674
-0.084846871
-0.066786505
-0.039695957
-0.052596218
-0.064206453
-0.038405931
-0.025505669
-0.057756322
-0.090006975
-0.04872614
-0.006155278
0.002874905
0.03125548
0.017065193
-0.013895434
-0.021635591
0.042865715
0.09446676
0.081566499
0.089306655
0.121557308
0.149937883
0.16412817
0.183478562
0.209279085
0.262170156
0.308611096
0.35376201
0.35376201
0.302160965
0.308611096
0.336991671
0.326671462
0.327961488
0.357632088
0.380852559
0.423423421
0.426003473
0.426003473
0.418263316
0.420843368
0.407943107
0.435033656
0.458254126
0.438903734
0.472444413
0.525335484
0.522755432
0.477604518
0.451803995
0.472444413
0.473734439
0.467284309
0.513725249
0.531785615
0.473734439
0.49695491
0.54984598
0.552426033
0.579516581
0.558876163
0.538235745
0.556296111
0.571776425
0.588546764
0.598866973
0.632407652
0.642727861
0.631117626
0.625957522
0.637567757
0.640147809
0.61305726
0.587256738
0.578226555
0.591126816
0.579516581
0.571776425
0.538235745
0.521465406
0.539525772
0.578226555
0.587256738
0.587256738
0.547265928
0.538235745
0.535655693
0.516305301
0.521465406
0.518885354
0.525335484
0.505985092
0.493084831
0.464704257
0.424713447
0.402783003
0.395042846
0.375692454
0.362792193
0.315061226
0.280230521
0.26733026
0.271200338
0.26733026
0.207989058
0.182188536
0.187348641
0.200248902
0.170578301
0.130587491
0.10091689
0.07769642
0.075116368
0.03125548
0.028675428
-0.012605408
-0.046146087
-0.079686766
-0.113227446
-0.114517472
-0.177728752
-0.259000397
-0.322211677
-0.357042382
-0.404773349
-0.458954446
-0.498945256
-0.515715595
-0.528615857
-0.572476745
-0.633107972
-0.678258887
-0.736310062
-0.765980663
-0.813711629
-0.884663066
-0.933684058
-0.928523954
-0.960774607
-1.014955704
-1.040756227
-1.066556749
-1.07300688
-1.10267748
-1.164598734
-1.202009492
-1.243290327
-1.278121033
-1.284571163
-1.271670902
-1.270380876
-1.297471425
-1.311661712
-1.321981921
-1.33230213
-1.347782443
-1.371002913
-1.381323122
-1.3555226
-1.345202391
-1.3555226
-1.374872992
-1.377453044
-1.374872992
-1.391643331
-1.365842809
-1.356812626
-1.354232574
-1.324561973
-1.261350693
-1.217489805
-1.234260145
-1.240710275
-1.225229962
-1.199429439
-1.158148604
-1.112997689
-1.075586932
-1.031726044
-1.017535756
-1.004635495
-0.932394032
-0.887243118
-0.865312674
-0.822741812
-0.772430793
-0.746630271
-0.714379618
-0.662778573
-0.656328443
-0.638268077
-0.578926875
-0.514425569
-0.453794342
-0.409933453
-0.39445314
-0.368652618
-0.342852095
-0.293831103
-0.224169692
-0.217719561
-0.243520084
-0.193209065
-0.157088334
-0.129997785
-0.057756322
0.029965454
0.076406394
0.103496943
0.084146551
0.121557308
0.189928693
0.214439189
0.229919503
0.25055992
0.30732107
0.37053235
0.402783003
0.472444413
0.48018457
0.481474596
0.46341423
0.478894544
0.52017538
0.544685876
0.564036268
0.580806607
0.587256738
0.628537574
0.647887966
0.664658305
0.65304807
0.609187182
0.598866973
0.602737051
0.642727861
0.681428645
0.69948901
0.705939141
0.704649115
0.717549376
0.738189794
0.736899768
0.765280343
0.776890578
0.749800029
0.771730473
0.757540186
0.780760656
0.801401074
0.836231779
0.816881387
0.783340708
0.794950943
0.806561179
0.814301335
0.794950943
0.787210787
0.797530996
0.794950943
0.752380081
0.73947982
0.73947982
0.774310526
0.803981126
0.8026911
0.79624097
0.784630734
0.771730473
0.773020499
0.789790839
0.785920761
0.8026911
0.794950943
0.801401074
0.823331518
0.833651727
0.827201596
0.818171414
0.816881387
0.824621544
0.828491623
0.833651727
0.851712093
0.867192406
0.856872197
0.834941753
0.82591157
0.820751466
0.834941753
0.829781649
0.81946144
0.803981126
0.82591157
0.823331518
0.780760656
0.787210787
0.771730473
0.73947982
0.738189794
0.720129428
0.703359089
0.686588749
0.664658305
0.641437835
0.582096634
0.538235745
0.527915536
0.507275118
0.509855171
0.478894544
0.453094021
0.432453603
0.398912924
0.352471984
0.346021853
0.346021853
0.335701644
0.263460182
0.218309267
0.229919503
0.217019241
0.175738405
0.142197726
0.081566499
0.066086185
0.029965454
-0.010025356
-0.04872614
-0.070656584
-0.080976793
-0.093877054
-0.173858673
-0.222879666
-0.231909849
-0.206109326
-0.238359979
-0.266740554
-0.309311416
-0.327371782
-0.301571259
-0.302861285
-0.336401965
-0.364782539
-0.366072565
-0.429283845
-0.433153924
-0.444764159
-0.460244472
-0.477014812
-0.501525308
-0.513135543
-0.501525308
-0.502815334
-0.542806144
-0.56086651
-0.585377006
-0.604727398
-0.611177528
-0.612467554
-0.585377006
-0.604727398
-0.648588286
-0.685999043
-0.669228704
-0.664068599
-0.67051873
-0.67696886
-0.709219513
-0.747920297
-0.777590898
-0.765980663
-0.759530532
-0.762110584
-0.758240506
-0.765980663
-0.765980663
-0.787911107
-0.827901917
-0.811131577
-0.80339142
-0.875632883
-0.901433405
-0.84338223
-0.825321864
-0.858862543
-0.871762805
-0.844672256
-0.853702439
-0.862732622
-0.891113196
-0.949164372
-0.947874346
-0.936264111
-0.922073823
-0.936264111
-0.932394032
-0.927233928
-0.942714241
-0.958194555
-0.940134189
-0.950454398
-0.960774607
-0.954324476
-0.968514764
-0.956904529
-0.932394032
-0.893693249
-0.88982317
-0.927233928
-0.941424215
-0.918203745
-0.90659351
-0.882083014
-0.861442596
-0.836932099
-0.829191943
-0.839512152
-0.856282491
-0.82016176
-0.805971473
-0.793071211
-0.793071211
-0.764690637
-0.753080402
-0.781460976
-0.787911107
-0.751790375
-0.702769383
-0.705349435
-0.679548913
-0.685999043
-0.665358625
-0.662778573
-0.697609278
-0.697609278
-0.687289069
-0.691159148
-0.701479357
-0.711799566
-0.67051873
-0.638268077
-0.629237894
-0.618917685
-0.626657842
-0.624077789
-0.611177528
-0.602147345
-0.593117163
-0.571186719
-0.564736588
-0.550546301
-0.556996431
-0.563446562
-0.56086651
-0.536356013
-0.523455752
-0.491205099
-0.460244472
-0.495075177
-0.536356013
-0.535065987
-0.5208757
-0.531195909
-0.541516118
-0.532485935
-0.532485935
-0.510555491
-0.484754968
-0.488625047
-0.482174916
-0.488625047
-0.488625047
-0.49765523
-0.479594864
-0.443474133
-0.424123741
-0.41767361
-0.415093558
-0.399613244
-0.403483323
-0.39445314
-0.407353401
-0.367362591
-0.329951834
-0.296411155
-0.301571259
-0.315761547
-0.327371782
-0.30802139
-0.320921651
-0.327371782
-0.301571259
-0.323501703
-0.318341599
-0.289961024
-0.253840293
-0.256420345
-0.246100136
-0.225459718
-0.234489901
-0.252550267
-0.278350789
-0.293831103
-0.269320606
-0.249970214
-0.234489901
-0.225459718
-0.213849483
-0.191919039
-0.203529274
-0.19836917
-0.200949222
-0.216429535
-0.208689379
-0.184178882
-0.163538464
-0.193209065
-0.2048193
-0.193209065
-0.180308804
-0.160958412
-0.169988595
-0.191919039
-0.162248438
-0.144188073
-0.177728752
-0.197079143
-0.197079143
-0.182888856
-0.153218255
-0.168698569
-0.179018778
-0.171278621
-0.150638203
-0.122257628
-0.16482849
-0.193209065
-0.18159883
-0.155798308
-0.113227446
-0.100327184
-0.122257628
-0.157088334
-0.184178882
-0.166118517
-0.194499091
-0.185468908
-0.113227446
-0.114517472
-0.188048961
-0.2048193
-0.179018778
-0.105487289
-0.069366558
-0.068076531
-0.022925617
0.005454957
0.029965454
0.078986446
0.112527126
0.202828954
0.287970678
0.340861749
0.349891932
0.386012663
0.490504779
0.548555954
0.592416842
0.662078253
0.698198984
0.751090055
0.8026911
0.862032302
0.920083477
0.982004731
1.041345933
1.073596586
1.034895802
1.011675332
1.06198635
1.09552703
1.123907604
1.139387918
1.114877421
1.096817056
1.046506037
1.019415488
0.965234391
0.891702903
0.807851205
0.718839402
0.640147809
0.547265928
0.484054648
0.420843368
0.339571723
0.257010051
0.175738405
0.112527126
0.051895898
-0.030665774
-0.106777315
-0.175148699
-0.197079143
-0.194499091
-0.252550267
-0.26158045
-0.271900658
-0.266740554
-0.259000397
-0.24481011
-0.252550267
-0.270610632
-0.270610632
-0.264160502
-0.264160502
-0.246100136
-0.262870476
-0.262870476
-0.220299614
-0.217719561
-0.216429535
-0.222879666
-0.209979405
-0.224169692
-0.224169692
-0.231909849
-0.239650005
-0.213849483
-0.199659196
-0.225459718
-0.266740554
-0.251260241
-0.202239248
-0.193209065
-0.162248438
-0.133867864
-0.182888856
-0.206109326
-0.195789117
-0.209979405
-0.184178882
-0.150638203
-0.145478099
-0.13515789
-0.109357367
-0.11838755
-0.146768125
-0.177728752
-0.182888856
-0.15837836
-0.15837836
-0.140317994
-0.109357367
-0.145478099
-0.168698569
-0.15837836
-0.146768125
-0.157088334
-0.149348177
-0.132577837
-0.145478099
-0.154508281
-0.150638203
-0.148058151
-0.163538464
-0.133867864
-0.091297002
-0.096457106
-0.109357367
-0.077106714
-0.05517627
-0.074526662
-0.074526662
-0.069366558
-0.061626401
-0.035825878
-0.007445304
0.029965454
0.048025819
0.046735793
0.010615062
0.023515323
0.042865715
0.059636055
0.05447595
0.058346028
0.063506133
0.038995637
0.041575689
0.069956264
0.07124629
0.10091689
0.089306655
0.046735793
0.058346028
0.075116368
0.072536316
0.042865715
0.038995637
0.063506133
0.106076995
0.113817152
0.078986446
0.081566499
0.075116368
0.07124629
0.063506133
0.062216107
0.064796159
0.066086185
0.048025819
0.057056002
0.03125548
-0.006155278
-0.006155278
0.019645245
-0.000995173
-0.050016166
-0.075816688
-0.043566035
-0.05517627
-0.059046349
-0.05517627
-0.025505669
-0.030665774
-0.084846871
-0.090006975
-0.046146087
0.001584879
0.005454957
-0.013895434
-0.019055539
-0.016475487
-0.01518546
-0.011315382
0.011905088
0.006744984
-0.002285199
0.024805349
0.032545506
-0.010025356
-0.01518546
0.01448514
0.024805349
0.027385402
0.036415584
0.040285663
0.018355219
-0.007445304
-0.006155278
0.017065193
0.002874905
0.009325036
0.028675428
-0.000995173
-0.025505669
-0.037115905
-0.012605408
-0.025505669
-0.051306192
-0.035825878
-0.060336375
-0.065496479
-0.069366558
-0.061626401
-0.05517627
-0.033245826
0.000294853
0.015775166
0.010615062
0.013195114
0.004164931
0.00803501
0.032545506
0.019645245
0.032545506
0.07124629
0.099626864
0.112527126
0.09446676
0.107367021
0.090596681
0.10091689
0.095756786
0.095756786
0.124137361
0.1409077
0.128007439
0.152517935
0.183478562
0.207989058
0.202828954
0.170578301
0.147357831
0.161548118
0.197668849
0.222179346
0.237659659
0.223469372
0.184768588
0.171868327
0.184768588
0.222179346
0.249269894
0.237659659
0.213149163
0.255720025
0.241529738
0.245399816
0.269910312
0.255720025
0.26733026
0.308611096
0.325381435
0.309901122
0.287970678
0.246689842
0.258300077
0.272490364
0.297000861
0.285390626
0.264750208
0.299580913
0.320221331
0.280230521
0.249269894
0.263460182
0.266040234
0.257010051
0.245399816
0.24410979
0.249269894
0.280230521
0.275070417
0.257010051
0.231209529
0.22088932
0.213149163
0.223469372
0.214439189
0.205409006
0.22088932
0.191218719
0.196378823
0.209279085
0.198958876
0.171868327
0.195088797
0.152517935
0.116397204
0.11768723
0.139617674
0.115107178
0.103496943
0.108657047
0.107367021
0.067376211
0.058346028
0.048025819
0.015775166
0.019645245
0.042865715
0.028675428
0.015775166
-0.00873533
0.005454957
0.032545506
0.015775166
0.006744984
0.005454957
-0.012605408
0.019645245
0.022225297
0.019645245
-0.039695957
-0.064206453
-0.084846871
-0.102907237
-0.101617211
-0.120967602
-0.101617211
-0.070656584
-0.069366558
-0.069366558
-0.07839674
-0.101617211
-0.149348177
-0.166118517
-0.133867864
-0.114517472
-0.113227446
-0.109357367
-0.100327184
-0.075816688
-0.086136897
-0.065496479
-0.037115905
-0.061626401
-0.110647393
-0.136447916
-0.11838755
-0.091297002
-0.104197263
-0.108067341
-0.092587028
-0.093877054
-0.088716949
-0.07194661
-0.091297002
-0.097747132
-0.070656584
-0.070656584
-0.077106714
-0.068076531
-0.025505669
-0.065496479
-0.09516708
-0.128707759
-0.132577837
-0.091297002
-0.069366558
-0.074526662
-0.073236636
-0.096457106
-0.119677576
-0.145478099
-0.149348177
-0.139027968
-0.087426923
-0.07194661
-0.093877054
-0.11193742
-0.096457106
-0.115807498
-0.117097524
-0.097747132
-0.090006975
-0.07194661
-0.066786505
-0.075816688
-0.073236636
-0.080976793
-0.104197263
-0.104197263
-0.099037158
-0.123547655
-0.137737942
-0.120967602
-0.119677576
-0.11838755
-0.128707759
-0.132577837
-0.096457106
-0.090006975
-0.119677576
-0.123547655
-0.096457106
-0.07839674
-0.07839674
-0.090006975
-0.104197263
-0.100327184
-0.062916427
-0.035825878
-0.034535852
-0.039695957
-0.028085722
-0.047436113
-0.051306192
-0.056466296
-0.087426923
-0.082266819
-0.056466296
-0.075816688
-0.091297002
-0.065496479
-0.057756322
-0.091297002
-0.102907237
-0.084846871
-0.102907237
-0.131287811
-0.148058151
-0.128707759
-0.129997785
-0.129997785
-0.127417733
-0.142898046
-0.13515789
-0.120967602
-0.106777315
-0.122257628
-0.131287811
-0.146768125
-0.14160802
-0.106777315
-0.069366558
-0.064206453
-0.087426923
-0.093877054
-0.083556845
-0.083556845
-0.075816688
-0.057756322
-0.064206453
-0.07839674
-0.086136897
-0.088716949
-0.09516708
-0.091297002
-0.084846871
-0.05517627
-0.034535852
-0.091297002
-0.096457106
-0.101617211
-0.110647393
-0.086136897
-0.052596218
-0.05517627
-0.075816688
-0.097747132
-0.106777315
-0.07839674
-0.043566035
-0.05517627
-0.082266819
-0.075816688
-0.080976793
-0.061626401
-0.038405931
-0.026795696
-0.042276009
-0.024215643
-0.020345565
-0.061626401
-0.070656584
-0.068076531
-0.057756322
-0.038405931
-0.030665774
-0.007445304
-0.035825878
-0.024215643
-0.017765513
-0.029375748
-0.040985983
-0.026795696
-0.034535852
-0.020345565
-0.016475487
-0.030665774
-0.017765513
-0.00873533
0.013195114
0.022225297
0.000294853
-0.003575225
0.002874905
0.027385402
0.011905088
-0.025505669
-0.000995173
0.013195114
0.024805349
-0.004865251
-0.013895434
0.038995637
0.062216107
0.059636055
0.063506133
0.048025819
0.060926081
0.058346028
0.063506133
0.069956264
0.066086185
0.068666237
0.073826342
0.089306655
0.115107178
0.104786969
0.072536316
0.075116368
0.090596681
0.103496943
0.073826342
0.058346028
0.082856525
0.109947073
0.120267282
0.111237099
0.129297465
0.097046812
0.10091689
0.095756786
0.093176734
0.093176734
0.1409077
0.160258092
0.139617674
0.103496943
0.116397204
0.148647857
0.162838144
0.144777779
0.1409077
0.139617674
0.143487752
0.139617674
0.183478562
0.223469372
0.205409006
0.174448379
0.16412817
0.186058614
0.214439189
0.222179346
0.22733945
0.233789581
0.241529738
0.235079607
0.219599294
0.202828954
0.245399816
0.264750208
0.268620286
0.247979868
0.258300077
0.289260704
0.289260704
0.260880129
0.269910312
0.251849947
0.241529738
0.257010051
0.271200338
0.293130782
0.306031044
0.2841006
0.268620286
0.299580913
0.300870939
0.277650469
0.268620286
0.272490364
0.278940495
0.300870939
0.302160965
0.325381435
0.318931305
0.315061226
0.315061226
0.298290887
0.311191148
0.329251514
0.318931305
0.306031044
0.263460182
0.26733026
0.280230521
0.302160965
0.315061226
0.299580913
0.254429999
0.253139973
0.259590103
0.255720025
0.271200338
0.291840756
0.320221331
0.300870939
0.272490364
0.260880129
0.2841006
0.271200338
0.259590103
0.258300077
0.2841006
0.318931305
0.317641279
0.2841006
0.258300077
0.246689842
0.237659659
0.238949685
0.242819764
0.266040234
0.259590103
0.25055992
0.240239711
0.241529738
0.258300077
0.287970678
0.271200338
0.269910312
0.264750208
0.245399816
0.206699032
0.218309267
0.222179346
0.231209529
0.22088932
0.182188536
0.183478562
0.202828954
0.193798771
0.165418196
0.138327648
0.160258092
0.184768588
0.166708223
0.156388014
0.15767804
0.122847334
0.128007439
0.161548118
0.178318458
0.193798771
0.18089851
0.171868327
0.193798771
0.195088797
0.196378823
0.217019241
0.196378823
0.191218719
0.20411898
0.197668849
0.22733945
0.189928693
0.139617674
0.166708223
0.193798771
0.158968066
0.167998249
0.156388014
0.11768723
0.137037622
0.231209529
0.169288275
0.064796159
0.072536316
0.147357831
0.166708223
0.155097988
0.131877517
0.148647857
0.155097988
0.124137361
0.147357831
0.143487752
0.151227909
0.151227909
0.152517935
0.133167543
0.1409077
0.153807961
0.152517935
0.143487752
0.128007439
0.124137361
0.115107178
0.122847334
0.139617674
0.130587491
0.144777779
0.152517935
0.142197726
0.106076995
0.121557308
0.11768723
0.11768723
0.076406394
0.068666237
0.102206917
0.113817152
0.104786969
0.120267282
0.130587491
0.122847334
0.107367021
0.095756786
0.095756786
0.111237099
0.115107178
0.075116368
0.089306655
0.121557308
0.153807961
0.148647857
0.13445757
0.128007439
0.135747596
0.111237099
0.126717413
0.124137361
0.095756786
0.121557308
0.130587491
0.116397204
0.106076995
0.125427387
0.108657047
0.090596681
0.122847334
0.151227909
0.138327648
0.111237099
0.111237099
0.102206917
0.090596681
0.093176734
0.09446676
0.088016629
0.086726603
0.081566499
0.089306655
0.082856525
0.104786969
0.103496943
0.073826342
0.084146551
0.09446676
0.069956264
0.078986446
0.102206917
0.129297465
0.13445757
0.152517935
0.126717413
0.078986446
0.080276472
0.076406394
0.084146551
0.091886708
0.088016629
0.09446676
0.111237099
0.089306655
0.060926081
0.035125558
0.024805349
0.032545506
0.067376211
0.073826342
0.058346028
0.045445767
0.068666237
0.089306655
0.129297465
0.091886708
0.081566499
0.104786969
0.078986446
0.093176734
0.076406394
0.093176734
0.084146551
0.060926081
0.040285663
0.053185924
0.050605872
0.037705611
0.023515323
0.011905088
0.040285663
0.049315846
0.038995637
0.024805349
0.000294853
-0.004865251
-0.007445304
-0.013895434
-0.007445304
0.00803501
0.048025819
0.068666237
0.051895898
0.01448514
-0.006155278
-0.024215643
-0.007445304
0.002874905
-0.002285199
-0.012605408
-0.000995173
0.013195114
0.024805349
0.018355219
0.027385402
-0.020345565
-0.026795696
-0.029375748
-0.011315382
0.027385402
0.026095375
0.03125548
0.038995637
-0.004865251
0.004164931
0.013195114
0.006744984
0.009325036
0.024805349
0.022225297
0.023515323
0.018355219
0.019645245
0.018355219
0.041575689
0.038995637
-0.01518546
0.002874905
0.005454957
0.018355219
0.00803501
-0.002285199
-0.034535852
-0.038405931
-0.024215643
-0.037115905
-0.000995173
0.026095375
0.017065193
0.015775166
0.011905088
0.011905088
0.033835532
0.07124629
0.064796159
0.004164931
-0.038405931
-0.007445304
0.009325036
-0.017765513
-0.047436113
-0.022925617
0.00803501
0.002874905
-0.00873533
0.006744984
0.005454957
-0.012605408
-0.025505669
-0.030665774
-0.002285199
0.000294853
-0.006155278
0.019645245
0.046735793
0.058346028
0.07769642
0.041575689
0.009325036
0.023515323
0.03125548
0.005454957
-0.000995173
0.011905088
0.03125548
0.029965454
0.017065193
0.009325036
-0.002285199
-0.013895434
0.023515323
0.038995637
0.035125558
0.029965454
0.005454957
-0.016475487
0.006744984
0.024805349
0.058346028
0.097046812
0.088016629
0.067376211
0.066086185
0.038995637
-0.000995173
0.027385402
0.064796159
0.058346028
0.063506133
0.068666237
0.076406394
0.097046812
0.082856525
0.057056002
0.041575689
0.046735793
0.044155741
0.042865715
0.028675428
0.011905088
0.010615062
0.000294853
0.048025819
0.073826342
0.055765976
0.042865715
0.060926081
0.078986446
0.067376211
0.046735793
0.051895898
0.051895898
0.010615062
-0.00873533
0.044155741
0.091886708
0.085436577
0.072536316
0.068666237
0.03125548
0.040285663
0.068666237
0.057056002
0.028675428
-0.000995173
0.001584879
0.024805349
0.026095375
0.022225297
0.029965454
0.028675428
0.019645245
0.005454957
0.005454957
-0.000995173
-0.000995173
0.005454957
0.006744984
-0.022925617
-0.029375748
-0.002285199
0.009325036
0.01448514
0.001584879
-0.003575225
0.000294853
-0.011315382
-0.024215643
-0.028085722
-0.025505669
-0.019055539
-0.0319558
-0.044856061
-0.075816688
-0.091297002
-0.060336375
-0.044856061
-0.057756322
-0.079686766
-0.079686766
-0.106777315
-0.097747132
-0.083556845
-0.083556845
-0.07194661
-0.059046349
-0.065496479
-0.037115905
-0.034535852
-0.028085722
-0.017765513
-0.042276009
-0.061626401
-0.04872614
-0.042276009
-0.04872614
-0.068076531
-0.120967602
-0.09516708
-0.099037158
-0.092587028
-0.073236636
-0.077106714
-0.126127707
-0.102907237
-0.059046349
-0.053886244
-0.139027968
-0.129997785
-0.082266819
-0.029375748
-0.053886244
-0.064206453
-0.07839674
-0.066786505
-0.042276009
-0.029375748
-0.011315382
-0.053886244
-0.069366558
-0.065496479
-0.084846871
-0.11193742
-0.11193742
-0.11838755
-0.122257628
-0.137737942
-0.166118517
-0.139027968
-0.115807498
-0.155798308
-0.220299614
-0.188048961
-0.160958412
-0.133867864
-0.122257628
-0.122257628
-0.108067341
-0.082266819
-0.04872614
-0.016475487
0.011905088
0.062216107
0.139617674
0.193798771
0.249269894
0.304741018
0.369242324
0.44019376
0.499534962
0.52662551
0.560166189
0.610477208
0.696908958
0.791080865
0.828491623
0.871062485
0.894282955
0.927823634
0.931693712
0.939433869
0.966524418
0.993614966
1.03231575
1.03876588
1.033605776
1.012965358
1.003935175
0.961364313
0.899443059
0.862032302
0.829781649
0.742059872
0.6298276
0.531785615
0.476314492
0.426003473
0.355052036
0.253139973
0.158968066
0.093176734
0.037705611
-0.034535852
-0.113227446
-0.172568647
-0.231909849
-0.283510894
-0.315761547
-0.33124186
-0.302861285
-0.275770737
-0.277060763
-0.257710371
-0.252550267
-0.256420345
-0.279640815
-0.26803058
-0.248680188
-0.252550267
-0.203529274
-0.166118517
-0.168698569
-0.189338987
-0.199659196
-0.177728752
-0.166118517
-0.197079143
-0.185468908
-0.163538464
-0.11838755
-0.153218255
-0.179018778
-0.226749744
-0.213849483
-0.203529274
-0.237069953
-0.266740554
-0.233199875
-0.222879666
-0.216429535
-0.247390162
-0.260290423
-0.239650005
-0.247390162
-0.283510894
-0.304151312
-0.266740554
-0.208689379
-0.229329797
-0.233199875
-0.231909849
-0.242230058
-0.222879666
-0.202239248
-0.171278621
-0.182888856
-0.19836917
-0.203529274
-0.209979405
-0.212559457
-0.167408543
-0.171278621
-0.206109326
-0.22158964
-0.200949222
-0.189338987
-0.202239248
-0.224169692
-0.203529274
-0.19836917
-0.2048193
-0.194499091
-0.19836917
-0.195789117
-0.182888856
-0.188048961
-0.203529274
-0.167408543
-0.139027968
-0.146768125
-0.190629013
-0.182888856
-0.163538464
-0.16482849
-0.15837836
-0.159668386
-0.153218255
-0.142898046
-0.120967602
-0.120967602
-0.132577837
-0.133867864
-0.128707759
-0.131287811
-0.110647393
-0.087426923
-0.114517472
-0.163538464
-0.126127707
-0.109357367
-0.079686766
-0.097747132
-0.106777315
-0.084846871
-0.09516708
-0.074526662
-0.091297002
-0.131287811
-0.131287811
-0.110647393
-0.066786505
-0.068076531
-0.079686766
-0.07194661
-0.07839674
-0.073236636
-0.101617211
-0.100327184
-0.093877054
-0.065496479
-0.042276009
-0.047436113
-0.047436113
-0.024215643
-0.016475487
-0.043566035
-0.061626401
-0.05517627
-0.052596218
-0.052596218
-0.053886244
-0.056466296
-0.065496479
-0.047436113
-0.029375748
-0.021635591
-0.042276009
-0.044856061
-0.024215643
0.006744984
-0.016475487
-0.003575225
0.002874905
0.006744984
0.011905088
-0.013895434
-0.029375748
0.013195114
0.044155741
0.058346028
0.036415584
0.019645245
0.042865715
0.027385402
-0.016475487
-0.046146087
-0.038405931
-0.017765513
0.017065193
0.029965454
0.004164931
0.026095375
0.053185924
0.036415584
0.010615062
0.022225297
0.048025819
0.067376211
0.078986446
0.07124629
0.07124629
0.073826342
0.073826342
0.072536316
0.106076995
0.111237099
0.106076995
0.104786969
0.093176734
0.081566499
0.059636055
0.051895898
0.064796159
0.07124629
0.076406394
0.086726603
0.080276472
0.062216107
0.090596681
0.133167543
0.108657047
0.086726603
0.111237099
0.120267282
0.099626864
0.126717413
0.138327648
0.13445757
0.146067805
0.15767804
0.153807961
0.170578301
0.184768588
0.165418196
0.158968066
0.155097988
0.139617674
0.135747596
0.142197726
0.146067805
0.156388014
0.171868327
0.16412817
0.162838144
0.179608484
0.193798771
0.189928693
0.183478562
0.200248902
0.192508745
0.170578301
0.166708223
0.156388014
0.135747596
0.151227909
0.153807961
0.179608484
0.184768588
0.160258092
0.146067805
0.146067805
0.124137361
0.102206917
0.104786969
0.102206917
0.099626864
0.085436577
0.099626864
0.146067805
0.147357831
0.130587491
0.131877517
0.091886708
0.073826342
0.068666237
0.085436577
0.076406394
0.090596681
0.082856525
0.044155741
0.055765976
0.07124629
0.076406394
0.085436577
0.073826342
0.053185924
0.057056002
0.040285663
0.038995637
0.045445767
0.018355219
-0.00873533
-0.025505669
0.002874905
-0.020345565
-0.038405931
-0.026795696
-0.021635591
-0.033245826
-0.047436113
-0.057756322
-0.090006975
-0.097747132
-0.059046349
-0.033245826
-0.069366558
-0.136447916
-0.136447916
-0.123547655
-0.14160802
-0.151928229
-0.120967602
-0.088716949
-0.11193742
-0.117097524
-0.123547655
-0.137737942
-0.163538464
-0.153218255
-0.153218255
-0.168698569
-0.229329797
-0.19836917
-0.150638203
-0.137737942
-0.139027968
-0.16482849
-0.189338987
-0.185468908
-0.177728752
-0.195789117
-0.22803977
-0.22158964
-0.219009588
-0.220299614
-0.194499091
-0.184178882
-0.200949222
-0.206109326
-0.202239248
-0.229329797
-0.219009588
-0.190629013
-0.190629013
-0.197079143
-0.209979405
-0.19836917
-0.220299614
-0.24481011
-0.219009588
-0.194499091
-0.195789117
-0.189338987
-0.190629013
-0.197079143
-0.208689379
-0.194499091
-0.176438726
-0.150638203
-0.169988595
-0.186758935
-0.215139509
-0.2048193
-0.193209065
-0.193209065
-0.182888856
-0.179018778
-0.191919039
-0.211269431
-0.207399352
-0.200949222
-0.202239248
-0.202239248
-0.182888856
-0.180308804
-0.188048961
-0.179018778
-0.168698569
-0.163538464
-0.166118517
-0.149348177
-0.182888856
-0.179018778
-0.186758935
-0.175148699
-0.139027968
-0.088716949
-0.093877054
-0.177728752
-0.226749744
-0.189338987
-0.186758935
-0.172568647
-0.171278621
-0.176438726
-0.216429535
-0.173858673
-0.11193742
-0.091297002
-0.100327184
-0.099037158
-0.105487289
-0.113227446
-0.114517472
-0.115807498
-0.104197263
-0.066786505
-0.046146087
-0.070656584
-0.04872614
-0.044856061
-0.097747132
-0.117097524
-0.108067341
-0.100327184
-0.102907237
-0.120967602
-0.091297002
-0.062916427
-0.056466296
-0.109357367
-0.155798308
-0.151928229
-0.132577837
-0.114517472
-0.109357367
-0.079686766
-0.064206453
-0.070656584
-0.092587028
-0.099037158
-0.091297002
-0.11838755
-0.132577837
-0.114517472
-0.097747132
-0.11193742
-0.090006975
-0.057756322
-0.056466296
-0.037115905
-0.047436113
-0.066786505
-0.092587028
-0.091297002
-0.07839674
-0.068076531
-0.056466296
-0.066786505
-0.079686766
-0.087426923
-0.108067341
-0.120967602
-0.136447916
-0.16482849
-0.136447916
-0.091297002
-0.082266819
-0.097747132
-0.083556845
-0.099037158
-0.109357367
-0.077106714
-0.047436113
-0.0319558
-0.022925617
-0.039695957
-0.066786505
-0.059046349
-0.069366558
-0.056466296
-0.040985983
-0.034535852
-0.037115905
-0.029375748
-0.059046349
-0.090006975
-0.077106714
-0.087426923
-0.087426923
-0.04872614
-0.046146087
-0.066786505
-0.050016166
-0.017765513
-0.006155278
-0.011315382
-0.044856061
-0.060336375
-0.037115905
-0.024215643
0.000294853
0.033835532
0.013195114
-0.040985983
-0.07839674
-0.091297002
-0.129997785
-0.101617211
-0.05517627
-0.038405931
-0.057756322
-0.064206453
-0.039695957
-0.066786505
-0.053886244
-0.0319558
-0.0319558
-0.0319558
-0.022925617
-0.019055539
-0.013895434
-0.002285199
0.002874905
0.005454957
0.002874905
0.029965454
0.029965454
0.017065193
0.010615062
0.000294853
-0.013895434
-0.034535852
-0.026795696
-0.038405931
-0.003575225
0.005454957
0.015775166
0.009325036
-0.000995173
-0.004865251
0.000294853
0.01448514
0.011905088
0.017065193
0.046735793
0.01448514
0.00803501
-0.028085722
0.004164931
0.005454957
0.000294853
0.000294853
0.011905088
0.00803501
-0.011315382
-0.01518546
0.006744984
0.005454957
-0.002285199
-0.025505669
-0.006155278
-0.000995173
-0.046146087
-0.05517627
-0.01518546
0.006744984
0.015775166
-0.016475487
-0.025505669
-0.021635591
-0.025505669
-0.022925617
-0.046146087
-0.035825878
-0.029375748
0.006744984
-0.002285199
-0.006155278
-0.022925617
-0.029375748
-0.013895434
-0.016475487
-0.012605408
-0.024215643
-0.021635591
-0.039695957
-0.01518546
0.009325036
-0.002285199
-0.022925617
-0.024215643
-0.013895434
-0.017765513
-0.05517627
-0.039695957
-0.026795696
-0.020345565
-0.003575225
-0.016475487
-0.047436113
-0.068076531
-0.066786505
-0.050016166
-0.037115905
-0.00873533
-0.002285199
-0.00873533
0.005454957
-0.079686766
-0.102907237
-0.079686766
-0.047436113
-0.019055539
0.005454957
-0.006155278
-0.019055539
-0.024215643
-0.011315382
-0.029375748
-0.052596218
-0.00873533
0.001584879
-0.011315382
0.035125558
0.023515323
0.004164931
0.000294853
0.00803501
-0.006155278
-0.020345565
-0.011315382
0.000294853
0.002874905
0.000294853
-0.019055539
-0.037115905
-0.0319558
-0.010025356
0.00803501
0.009325036
0.026095375
0.032545506
0.028675428
0.018355219
0.006744984
-0.013895434
0.028675428
0.051895898
0.040285663
0.046735793
0.050605872
0.015775166
-0.011315382
-0.007445304
0.010615062
0.001584879
-0.000995173
0.005454957
0.024805349
0.022225297
0.026095375
0.00803501
0.005454957
-0.004865251
0.017065193
0.018355219
0.024805349
0.027385402
0.020935271
0.038995637
0.049315846
0.011905088
-0.002285199
0.01448514
0.036415584
0.042865715
0.037705611
-0.004865251
-0.017765513
0.002874905
0.019645245
0.028675428
0.041575689
0.03125548
0.066086185
0.060926081
0.018355219
0.032545506
0.055765976
0.049315846
0.053185924
0.051895898
0.064796159
0.078986446
0.068666237
0.069956264
0.055765976
0.022225297
0.015775166
0.027385402
0.022225297
0.019645245
0.019645245
0.023515323
0.037705611
0.01448514
-0.037115905
-0.021635591
-0.017765513
-0.020345565
-0.004865251
0.017065193
0.023515323
0.020935271
-0.003575225
-0.024215643
-0.002285199
0.042865715
0.07124629
0.063506133
0.053185924
0.029965454
-0.020345565
-0.006155278
0.020935271
0.018355219
0.005454957
0.015775166
0.028675428
0.040285663
0.053185924
0.037705611
0.03125548
0.026095375
-0.006155278
-0.011315382
0.010615062
0.019645245
0.004164931
-0.038405931
-0.053886244
-0.037115905
-0.0319558
-0.042276009
-0.047436113
-0.000995173
0.013195114
-0.003575225
-0.021635591
-0.038405931
-0.059046349
-0.066786505
-0.07194661
-0.066786505
-0.012605408
0.006744984
0.004164931
0.000294853
-0.046146087
-0.00873533
0.023515323
0.033835532
0.023515323
-0.016475487
-0.047436113
-0.034535852
-0.012605408
-0.002285199
0.005454957
0.006744984
0.03125548
0.005454957
-0.004865251
-0.002285199
0.004164931
0.015775166
0.028675428
0.027385402
0.013195114
0.033835532
0.042865715
0.037705611
0.029965454
0.001584879
-0.002285199
0.004164931
0.010615062
0.015775166
-0.006155278
-0.006155278
-0.00873533
0.005454957
0.038995637
0.033835532
-0.004865251
-0.016475487
-0.039695957
-0.040985983
0.001584879
0.001584879
0.018355219
0.026095375
0.059636055
0.060926081
0.057056002
0.050605872
0.055765976
0.07769642
0.084146551
0.082856525
0.076406394
0.078986446
0.032545506
0.018355219
0.053185924
0.063506133
0.05447595
0.048025819
0.042865715
0.020935271
0.041575689
0.060926081
0.059636055
0.057056002
0.059636055
0.038995637
0.024805349
0.023515323
0.004164931
-0.000995173
0.036415584
0.050605872
0.01448514
0.032545506
0.072536316
0.044155741
0.050605872
0.049315846
0.032545506
0.013195114
0.024805349
0.026095375
0.040285663
0.048025819
0.059636055
0.069956264
0.055765976
0.032545506
0.027385402
0.028675428
0.045445767
0.022225297
-0.012605408
-0.026795696
0.009325036
0.019645245
0.020935271
0.00803501
0.000294853
-0.017765513
-0.004865251
0.01448514
0.011905088
0.010615062
0.029965454
0.038995637
0.023515323
-0.01518546
0.004164931
-0.006155278
0.004164931
0.049315846
0.046735793
0.005454957
-0.00873533
-0.021635591
-0.024215643
-0.000995173
-0.004865251
0.00803501
0.013195114
0.037705611
0.048025819
0.044155741
0.041575689
0.038995637
0.010615062
0.005454957
0.005454957
-0.002285199
-0.007445304
0.019645245
0.049315846
0.053185924
0.037705611
0.022225297
0.018355219
0.017065193
0.011905088
0.011905088
0.005454957
0.001584879
0.001584879
0.002874905
0.063506133
0.063506133
-0.00873533
0.000294853
0.042865715
0.073826342
0.113817152
0.099626864
0.099626864
0.068666237
0.044155741
0.046735793
0.036415584
0.064796159
0.085436577
0.107367021
0.120267282
0.098336838
0.102206917
0.09446676
0.068666237
0.058346028
0.072536316
0.085436577
0.07124629
0.057056002
0.063506133
0.072536316
0.058346028
0.044155741
0.068666237
0.048025819
0.041575689
0.076406394
0.073826342
0.073826342
0.055765976
0.040285663
0.078986446
0.095756786
0.067376211
0.037705611
0.029965454
0.033835532
0.07124629
0.10091689
0.073826342
0.062216107
0.050605872
0.078986446
0.086726603
0.062216107
0.064796159
0.059636055
0.07124629
0.07124629
0.044155741
0.058346028
0.059636055
0.037705611
0.037705611
0.051895898
0.026095375
0.005454957
-0.011315382
0.002874905
-0.006155278
-0.052596218
-0.038405931
-0.042276009
-0.011315382
-0.000995173
-0.028085722
-0.046146087
-0.061626401
-0.059046349
-0.050016166
-0.033245826
-0.00873533
-0.004865251
-0.019055539
-0.044856061
-0.04872614
-0.035825878
-0.053886244
-0.068076531
-0.073236636
-0.051306192
-0.070656584
-0.105487289
-0.069366558
-0.043566035
-0.052596218
-0.073236636
-0.04872614
-0.051306192
-0.057756322
-0.064206453
-0.061626401
-0.040985983
-0.046146087
-0.029375748
-0.020345565
-0.047436113
-0.030665774
-0.034535852
-0.051306192
-0.039695957
0.000294853
0.004164931
-0.002285199
-0.024215643
-0.034535852
-0.033245826
-0.021635591
0.023515323
0.009325036
-0.013895434
-0.019055539
-0.004865251
0.009325036
0.029965454
0.020935271
-0.003575225
-0.084846871
-0.093877054
-0.021635591
-0.006155278
0.006744984
-0.029375748
-0.033245826
-0.046146087
-0.11193742
-0.100327184
-0.047436113
-0.051306192
-0.091297002
-0.099037158
-0.124837681
-0.119677576
-0.113227446
-0.073236636
-0.039695957
-0.034535852
-0.050016166
-0.04872614
-0.026795696
0.029965454
0.066086185
0.080276472
0.137037622
0.249269894
0.321511357
0.365372245
0.446643891
0.52017538
0.567906346
0.545975902
0.600156999
0.673688488
0.763990317
0.829781649
0.862032302
0.892992929
0.972974548
1.01554541
1.011675332
0.983294757
1.000065097
1.007805253
1.037475854
1.073596586
1.100687134
1.05553622
1.037475854
1.019415488
0.95233413
0.892992929
0.831071675
0.770440447
0.691748854
0.662078253
0.575646503
0.489214753
0.364082219
0.29055073
0.169288275
0.102206917
0.045445767
-0.024215643
-0.09516708
-0.159668386
-0.2048193
-0.252550267
-0.28480092
-0.296411155
-0.315761547
-0.344142121
-0.349302226
-0.332531886
-0.346722174
-0.323501703
-0.286090946
-0.266740554
-0.253840293
-0.251260241
-0.270610632
-0.224169692
-0.217719561
-0.230619823
-0.247390162
-0.238359979
-0.224169692
-0.211269431
-0.162248438
-0.109357367
-0.137737942
-0.22803977
-0.237069953
-0.216429535
-0.206109326
-0.191919039
-0.182888856
-0.180308804
-0.185468908
-0.2048193
-0.211269431
-0.213849483
-0.213849483
-0.208689379
-0.195789117
-0.19836917
-0.233199875
-0.207399352
-0.176438726
-0.154508281
-0.202239248
-0.231909849
-0.19836917
-0.171278621
-0.159668386
-0.189338987
-0.203529274
-0.209979405
-0.191919039
-0.154508281
-0.13515789
-0.144188073
-0.149348177
-0.153218255
-0.151928229
-0.148058151
-0.151928229
-0.131287811
-0.122257628
-0.122257628
-0.105487289
-0.128707759
-0.11838755
-0.108067341
-0.150638203
-0.185468908
-0.150638203
-0.126127707
-0.096457106
-0.108067341
-0.133867864
-0.109357367
-0.101617211
-0.11193742
-0.119677576
-0.124837681
-0.113227446
-0.110647393
-0.123547655
-0.124837681
-0.099037158
-0.050016166
-0.050016166
-0.04872614
-0.083556845
-0.108067341
-0.129997785
-0.122257628
-0.096457106
-0.119677576
-0.119677576
-0.092587028
-0.066786505
-0.073236636
-0.073236636
-0.070656584
-0.051306192
-0.069366558
-0.040985983
-0.002285199
-0.052596218
-0.102907237
-0.084846871
-0.046146087
-0.040985983
-0.00873533
0.004164931
-0.017765513
-0.028085722
-0.038405931
-0.043566035
-0.059046349
-0.046146087
-0.011315382
-0.024215643
-0.059046349
-0.077106714
-0.035825878
0.004164931
0.018355219
-0.000995173
-0.019055539
-0.020345565
-0.024215643
-0.004865251
0.00803501
0.005454957
-0.002285199
0.000294853
-0.012605408
-0.013895434
-0.006155278
0.028675428
0.048025819
0.033835532
0.041575689
0.037705611
0.015775166
-0.003575225
-0.006155278
-0.011315382
0.002874905
0.002874905
0.000294853
-0.043566035
-0.004865251
0.032545506
0.032545506
0.013195114
-0.035825878
-0.0319558
-0.017765513
-0.029375748
-0.017765513
0.026095375
0.024805349
0.029965454
0.060926081
0.066086185
0.063506133
0.057056002
0.059636055
0.060926081
0.044155741
0.049315846
0.050605872
0.059636055
0.091886708
0.089306655
0.07124629
0.059636055
0.073826342
0.062216107
0.082856525
0.115107178
0.113817152
0.116397204
0.109947073
0.108657047
0.138327648
0.166708223
0.166708223
0.148647857
0.143487752
0.161548118
0.131877517
0.1409077
0.149937883
0.143487752
0.138327648
0.131877517
0.131877517
0.137037622
0.153807961
0.174448379
0.165418196
0.118977256
0.099626864
0.113817152
0.128007439
0.126717413
0.115107178
0.139617674
0.191218719
0.173158353
0.151227909
0.16412817
0.170578301
0.165418196
0.186058614
0.222179346
0.226049424
0.201538928
0.186058614
0.174448379
0.183478562
0.186058614
0.191218719
0.214439189
0.233789581
0.20411898
0.184768588
0.170578301
0.170578301
0.175738405
0.13445757
0.142197726
0.13445757
0.130587491
0.126717413
0.138327648
0.166708223
0.148647857
0.122847334
0.143487752
0.13445757
0.108657047
0.095756786
0.081566499
0.088016629
0.07124629
0.103496943
0.104786969
0.076406394
0.084146551
0.063506133
0.033835532
0.018355219
-0.003575225
0.010615062
0.009325036
0.01448514
-0.013895434
-0.047436113
-0.042276009
-0.012605408
-0.022925617
-0.033245826
-0.030665774
-0.044856061
-0.064206453
-0.061626401
-0.056466296
-0.05517627
-0.040985983
-0.040985983
-0.044856061
-0.09516708
-0.115807498
-0.110647393
-0.11838755
-0.096457106
-0.09516708
-0.106777315
-0.106777315
-0.109357367
-0.132577837
-0.140317994
-0.159668386
-0.15837836
-0.180308804
-0.199659196
-0.186758935
-0.172568647
-0.179018778
-0.190629013
-0.176438726
-0.185468908
-0.195789117
-0.215139509
-0.249970214
-0.242230058
-0.239650005
-0.188048961
-0.185468908
-0.172568647
-0.162248438
-0.175148699
-0.186758935
-0.197079143
-0.197079143
-0.199659196
-0.200949222
-0.195789117
-0.176438726
-0.154508281
-0.151928229
-0.169988595
-0.184178882
-0.186758935
-0.189338987
-0.194499091
-0.195789117
-0.213849483
-0.202239248
-0.207399352
-0.237069953
-0.238359979
-0.231909849
-0.188048961
-0.160958412
-0.160958412
-0.177728752
-0.193209065
-0.215139509
-0.206109326
-0.179018778
-0.177728752
-0.18159883
-0.171278621
-0.162248438
-0.213849483
-0.255130319
-0.202239248
-0.177728752
-0.180308804
-0.193209065
-0.217719561
-0.200949222
-0.16482849
-0.136447916
-0.166118517
-0.217719561
-0.220299614
-0.184178882
-0.149348177
-0.166118517
-0.185468908
-0.188048961
-0.16482849
-0.154508281
-0.140317994
-0.133867864
-0.180308804
-0.190629013
-0.185468908
-0.202239248
-0.206109326
-0.211269431
-0.191919039
-0.157088334
-0.126127707
-0.149348177
-0.173858673
-0.186758935
-0.157088334
-0.150638203
-0.136447916
-0.11838755
-0.131287811
-0.117097524
-0.132577837
-0.15837836
-0.142898046
-0.117097524
-0.105487289
-0.101617211
-0.109357367
-0.146768125
-0.133867864
-0.137737942
-0.140317994
-0.119677576
-0.113227446
-0.16482849
-0.167408543
-0.13515789
-0.137737942
-0.149348177
-0.137737942
-0.127417733
-0.128707759
-0.140317994
-0.106777315
-0.104197263
-0.129997785
-0.142898046
-0.133867864
-0.132577837
-0.139027968
-0.137737942
-0.097747132
-0.073236636
-0.087426923
-0.097747132
-0.106777315
-0.11838755
-0.13515789
-0.140317994
-0.126127707
-0.083556845
-0.056466296
-0.090006975
-0.080976793
-0.092587028
-0.104197263
-0.104197263
-0.075816688
-0.059046349
-0.075816688
-0.065496479
-0.066786505
-0.069366558
-0.069366558
-0.069366558
-0.057756322
-0.062916427
-0.070656584
-0.043566035
-0.033245826
-0.039695957
-0.070656584
-0.070656584
-0.09516708
-0.114517472
-0.073236636
-0.043566035
-0.0319558
-0.052596218
-0.086136897
-0.073236636
-0.082266819
-0.080976793
-0.074526662
-0.07839674
-0.07839674
-0.035825878
-0.019055539
-0.020345565
-0.062916427
-0.11838755
-0.087426923
-0.059046349
-0.047436113
-0.039695957
-0.040985983
-0.052596218
-0.05517627
-0.057756322
-0.050016166
-0.068076531
-0.064206453
-0.066786505
-0.074526662
-0.090006975
-0.074526662
-0.056466296
-0.050016166
-0.062916427
-0.080976793
-0.084846871
-0.07194661
-0.090006975
-0.097747132
-0.065496479
-0.017765513
-0.024215643
-0.040985983
-0.061626401
-0.053886244
-0.0319558
-0.046146087
-0.022925617
-0.024215643
-0.043566035
-0.040985983
-0.037115905
-0.043566035
-0.026795696
-0.04872614
-0.064206453
-0.044856061
-0.050016166
-0.090006975
-0.090006975
-0.09516708
-0.092587028
-0.052596218
-0.010025356
-0.022925617
-0.040985983
-0.064206453
-0.066786505
-0.029375748
-0.011315382
-0.007445304
-0.0319558
-0.056466296
-0.039695957
-0.044856061
-0.056466296
-0.022925617
-0.059046349
-0.064206453
-0.025505669
-0.033245826
-0.035825878
-0.024215643
-0.028085722
-0.039695957
-0.05517627
-0.039695957
-0.017765513
-0.00873533
-0.003575225
0.000294853
-0.019055539
-0.039695957
-0.042276009
-0.064206453
-0.00873533
0.018355219
0.002874905
-0.016475487
-0.022925617
-0.035825878
-0.038405931
-0.010025356
-0.012605408
-0.003575225
-0.003575225
0.000294853
0.002874905
0.009325036
0.020935271
0.015775166
0.004164931
-0.012605408
0.005454957
0.005454957
-0.006155278
-0.00873533
0.017065193
0.023515323
0.029965454
0.022225297
0.010615062
0.001584879
-0.021635591
0.001584879
0.032545506
0.009325036
0.004164931
0.000294853
0.001584879
0.023515323
0.020935271
0.029965454
0.03125548
0.009325036
0.009325036
0.015775166
-0.003575225
0.001584879
0.009325036
0.026095375
0.024805349
0.018355219
0.032545506
0.035125558
0.001584879
0.005454957
0.013195114
-0.011315382
-0.017765513
-0.012605408
0.004164931
0.017065193
0.03125548
0.017065193
0.042865715
0.093176734
0.095756786
0.038995637
0.023515323
0.028675428
-0.002285199
0.040285663
0.066086185
0.044155741
0.041575689
0.029965454
0.019645245
0.006744984
0.011905088
0.005454957
-0.010025356
0.010615062
0.017065193
0.018355219
0.011905088
-0.004865251
-0.010025356
0.000294853
0.018355219
0.00803501
-0.000995173
0.004164931
0.058346028
0.066086185
0.01448514
-0.017765513
-0.012605408
0.002874905
0.036415584
0.060926081
0.032545506
-0.004865251
-0.002285199
0.015775166
0.019645245
0.019645245
0.036415584
0.032545506
-0.007445304
-0.000995173
-0.000995173
-0.000995173
0.006744984
0.019645245
-0.000995173
-0.002285199
0.011905088
0.029965454
0.00803501
-0.004865251
0.019645245
0.051895898
0.058346028
0.05447595
0.03125548
0.073826342
0.073826342
0.023515323
-0.025505669
-0.040985983
-0.003575225
0.035125558
0.058346028
0.040285663
-0.003575225
-0.017765513
-0.021635591
-0.039695957
-0.01518546
-0.025505669
-0.051306192
-0.024215643
-0.012605408
-0.020345565
-0.019055539
-0.011315382
0.022225297
0.027385402
0.044155741
0.032545506
0.004164931
0.000294853
0.015775166
0.028675428
0.019645245
0.019645245
0.07769642
0.103496943
0.075116368
0.055765976
0.049315846
0.057056002
0.07124629
0.062216107
0.040285663
0.038995637
0.057056002
0.064796159
0.07124629
0.121557308
0.088016629
0.045445767
0.017065193
0.037705611
0.051895898
0.046735793
0.048025819
0.063506133
0.055765976
0.058346028
0.078986446
0.07124629
0.049315846
0.062216107
0.041575689
0.051895898
0.07124629
0.064796159
0.059636055
0.07124629
0.058346028
0.057056002
0.059636055
0.068666237
0.081566499
0.044155741
0.022225297
0.023515323
0.028675428
0.019645245
0.037705611
0.045445767
0.029965454
0.027385402
0.03125548
0.029965454
0.015775166
0.000294853
0.005454957
0.038995637
0.063506133
0.058346028
0.038995637
0.024805349
0.036415584
0.053185924
0.045445767
0.015775166
0.015775166
0.020935271
0.020935271
0.015775166
0.019645245
0.029965454
0.018355219
0.009325036
0.011905088
0.028675428
0.017065193
-0.010025356
-0.003575225
0.041575689
0.068666237
0.07124629
0.033835532
-0.003575225
0.032545506
0.042865715
0.044155741
0.078986446
0.045445767
0.049315846
0.062216107
0.059636055
0.03125548
0.057056002
0.060926081
0.05447595
0.022225297
0.033835532
0.040285663
0.055765976
0.069956264
0.062216107
0.004164931
-0.029375748
-0.019055539
-0.007445304
-0.002285199
-0.002285199
-0.006155278
0.002874905
0.018355219
-0.010025356
-0.01518546
-0.010025356
-0.028085722
-0.010025356
0.017065193
0.055765976
0.03125548
0.00803501
0.049315846
0.07124629
0.059636055
0.07124629
0.072536316
0.062216107
0.044155741
0.053185924
0.053185924
0.049315846
0.046735793
0.050605872
0.060926081
0.048025819
0.044155741
0.07124629
0.090596681
0.073826342
0.050605872
0.020935271
0.009325036
0.040285663
0.064796159
0.080276472
0.046735793
0.044155741
0.063506133
0.05447595
0.042865715
0.066086185
0.080276472
0.088016629
0.088016629
0.085436577
0.049315846
0.029965454
0.032545506
0.049315846
0.051895898
0.059636055
0.051895898
0.066086185
0.081566499
0.102206917
0.066086185
0.063506133
0.046735793
0.068666237
0.068666237
0.037705611
0.049315846
0.080276472
0.115107178
0.099626864
0.059636055
0.033835532
0.118977256
0.151227909
0.078986446
0.058346028
0.069956264
0.066086185
0.075116368
0.080276472
0.113817152
0.115107178
0.113817152
0.139617674
0.153807961
0.126717413
0.097046812
0.090596681
0.097046812
0.07769642
0.072536316
0.067376211
0.060926081
0.084146551
0.07769642
0.063506133
0.05447595
0.059636055
0.053185924
0.082856525
0.080276472
0.059636055
0.064796159
0.082856525
0.057056002
0.072536316
0.066086185
0.073826342
0.133167543
0.137037622
0.10091689
0.072536316
0.081566499
0.085436577
0.095756786
0.088016629
0.080276472
0.078986446
0.062216107
0.055765976
0.081566499
0.10091689
0.107367021
0.093176734
0.104786969
0.082856525
0.086726603
0.09446676
0.095756786
0.098336838
0.090596681
0.055765976
0.067376211
0.057056002
0.040285663
0.067376211
0.109947073
0.109947073
0.059636055
0.048025819
0.058346028
0.058346028
0.069956264
0.072536316
0.091886708
0.07769642
0.029965454
0.055765976
0.086726603
0.068666237
0.069956264
0.073826342
0.045445767
0.058346028
0.091886708
0.059636055
0.028675428
0.019645245
0.03125548
0.03125548
0.03125548
0.027385402
0.042865715
0.019645245
0.019645245
0.028675428
0.020935271
0.022225297
0.005454957
-0.002285199
-0.013895434
-0.012605408
0.000294853
0.013195114
0.023515323
0.036415584
0.049315846
0.041575689
-0.003575225
-0.022925617
-0.012605408
-0.004865251
0.006744984
0.024805349
0.015775166
-0.007445304
-0.028085722
-0.024215643
-0.021635591
-0.00873533
0.01448514
0.00803501
-0.003575225
-0.007445304
-0.007445304
-0.016475487
-0.033245826
-0.01518546
0.015775166
0.01448514
0.026095375
0.015775166
-0.013895434
-0.028085722
-0.019055539
0.004164931
-0.017765513
-0.0319558
-0.011315382
-0.030665774
-0.04872614
-0.056466296
-0.064206453
-0.082266819
-0.084846871
-0.092587028
-0.093877054
-0.129997785
-0.133867864
-0.088716949
-0.106777315
-0.142898046
-0.137737942
-0.148058151
-0.13515789
-0.082266819
-0.061626401
-0.012605408
0.017065193
0.050605872
0.060926081
0.088016629
0.13445757
0.191218719
0.22733945
0.289260704
0.389882741
0.489214753
0.553716059
0.580806607
0.618217365
0.633697678
0.664658305
0.752380081
0.823331518
0.868482432
0.940723895
0.997485044
1.018125462
0.96910447
0.942013921
0.972974548
1.006515227
1.024575593
1.047796063
1.028445671
0.978134653
0.951044104
0.951044104
0.873642537
0.778180604
0.714969324
0.638857783
0.58983679
0.545975902
0.471154387
0.386012663
0.303450991
0.245399816
0.151227909
0.046735793
-0.033245826
-0.128707759
-0.189338987
-0.216429535
-0.262870476
-0.251260241
-0.257710371
-0.270610632
-0.310601442
-0.338982017
-0.311891468
-0.275770737
-0.247390162
-0.242230058
-0.246100136
-0.240940032
-0.203529274
-0.197079143
-0.169988595
-0.14160802
-0.123547655
-0.115807498
-0.142898046
-0.168698569
-0.172568647
-0.180308804
-0.18159883
-0.190629013
-0.206109326
-0.213849483
-0.207399352
-0.186758935
-0.167408543
-0.172568647
-0.18159883
-0.184178882
-0.215139509
-0.211269431
-0.190629013
-0.189338987
-0.193209065
-0.191919039
-0.176438726
-0.16482849
-0.177728752
-0.194499091
-0.184178882
-0.166118517
-0.169988595
-0.159668386
-0.157088334
-0.191919039
-0.2048193
-0.200949222
-0.203529274
-0.193209065
-0.193209065
-0.203529274
-0.185468908
-0.202239248
-0.207399352
-0.202239248
-0.184178882
-0.208689379
-0.229329797
-0.220299614
-0.188048961
-0.19836917
-0.209979405
-0.18159883
-0.13515789
-0.14160802
-0.150638203
-0.179018778
-0.200949222
-0.2048193
-0.191919039
-0.176438726
-0.150638203
-0.140317994
-0.151928229
-0.162248438
-0.202239248
-0.188048961
-0.18159883
-0.16482849
-0.15837836
-0.163538464
-0.163538464
-0.166118517
-0.162248438
-0.150638203
-0.137737942
-0.139027968
-0.150638203
-0.110647393
-0.101617211
-0.119677576
-0.142898046
-0.173858673
-0.167408543
-0.160958412
-0.113227446
-0.117097524
-0.123547655
-0.128707759
-0.123547655
-0.123547655
-0.105487289
-0.09516708
-0.096457106
-0.090006975
-0.096457106
-0.11193742
-0.106777315
-0.104197263
-0.110647393
-0.099037158
-0.079686766
-0.07839674
-0.080976793
-0.077106714
-0.057756322
-0.047436113
-0.053886244
-0.065496479
-0.064206453
-0.065496479
-0.050016166
-0.051306192
-0.026795696
0.004164931
0.01448514
0.011905088
0.005454957
-0.003575225
-0.013895434
-0.020345565
-0.011315382
0.000294853
0.009325036
0.028675428
0.041575689
0.032545506
-0.028085722
-0.044856061
-0.043566035
-0.029375748
-0.028085722
-0.050016166
-0.024215643
0.009325036
0.009325036
0.022225297
0.055765976
0.053185924
0.01448514
0.001584879
0.00803501
0.019645245
0.066086185
0.068666237
0.064796159
0.062216107
0.082856525
0.069956264
0.066086185
0.063506133
0.093176734
0.099626864
0.029965454
0.019645245
0.036415584
0.051895898
0.073826342
0.045445767
0.050605872
0.042865715
0.017065193
-0.019055539
-0.00873533
0.006744984
0.005454957
0.026095375
0.080276472
0.07124629
0.068666237
0.053185924
0.050605872
0.057056002
0.064796159
0.076406394
0.099626864
0.106076995
0.106076995
0.113817152
0.103496943
0.128007439
0.124137361
0.09446676
0.072536316
0.062216107
0.07124629
0.080276472
0.088016629
0.068666237
0.041575689
0.044155741
0.088016629
0.106076995
0.138327648
0.146067805
0.106076995
0.115107178
0.143487752
0.15767804
0.170578301
0.153807961
0.165418196
0.152517935
0.137037622
0.122847334
0.112527126
0.095756786
0.085436577
0.07769642
0.09446676
0.095756786
0.086726603
0.086726603
0.07769642
0.058346028
0.060926081
0.067376211
0.076406394
0.067376211
0.073826342
0.107367021
0.135747596
0.13445757
0.112527126
0.104786969
0.139617674
0.137037622
0.103496943
0.082856525
0.080276472
0.060926081
0.064796159
0.060926081
0.095756786
0.064796159
0.07124629
0.07124629
0.051895898
0.045445767
0.05447595
0.037705611
0.013195114
0.019645245
-0.019055539
-0.040985983
-0.007445304
0.01448514
0.001584879
-0.01518546
0.000294853
0.004164931
-0.028085722
-0.043566035
-0.034535852
-0.065496479
-0.084846871
-0.062916427
-0.042276009
-0.069366558
-0.077106714
-0.099037158
-0.142898046
-0.14160802
-0.133867864
-0.163538464
-0.171278621
-0.168698569
-0.173858673
-0.18159883
-0.188048961
-0.211269431
-0.216429535
-0.224169692
-0.211269431
-0.213849483
-0.209979405
-0.209979405
-0.186758935
-0.190629013
-0.199659196
-0.199659196
-0.203529274
-0.234489901
-0.248680188
-0.259000397
-0.273190685
-0.262870476
-0.252550267
-0.249970214
-0.269320606
-0.289961024
-0.270610632
-0.266740554
-0.271900658
-0.259000397
-0.246100136
-0.225459718
-0.215139509
-0.275770737
-0.283510894
-0.260290423
-0.230619823
-0.225459718
-0.188048961
-0.148058151
-0.176438726
-0.225459718
-0.256420345
-0.26158045
-0.242230058
-0.22158964
-0.242230058
-0.26158045
-0.260290423
-0.239650005
-0.235779927
-0.222879666
-0.185468908
-0.219009588
-0.220299614
-0.186758935
-0.154508281
-0.167408543
-0.203529274
-0.208689379
-0.199659196
-0.200949222
-0.202239248
-0.219009588
-0.2048193
-0.160958412
-0.16482849
-0.184178882
-0.18159883
-0.172568647
-0.182888856
-0.184178882
-0.18159883
-0.191919039
-0.177728752
-0.133867864
-0.104197263
-0.114517472
-0.119677576
-0.11193742
-0.104197263
-0.128707759
-0.120967602
-0.082266819
-0.079686766
-0.11193742
-0.163538464
-0.136447916
-0.129997785
-0.119677576
-0.082266819
-0.077106714
-0.065496479
-0.060336375
-0.093877054
-0.133867864
-0.110647393
-0.119677576
-0.123547655
-0.097747132
-0.108067341
-0.106777315
-0.109357367
-0.113227446
-0.101617211
-0.104197263
-0.11193742
-0.128707759
-0.126127707
-0.129997785
-0.108067341
-0.105487289
-0.087426923
-0.075816688
-0.074526662
-0.104197263
-0.097747132
-0.088716949
-0.088716949
-0.087426923
-0.096457106
-0.136447916
-0.114517472
-0.086136897
-0.091297002
-0.105487289
-0.106777315
-0.154508281
-0.139027968
-0.11193742
-0.115807498
-0.11838755
-0.123547655
-0.110647393
-0.088716949
-0.07839674
-0.099037158
-0.11193742
-0.126127707
-0.101617211
-0.074526662
-0.068076531
-0.070656584
-0.075816688
-0.07194661
-0.044856061
-0.026795696
-0.012605408
0.000294853
-0.022925617
-0.037115905
-0.074526662
-0.070656584
-0.043566035
-0.050016166
-0.050016166
-0.077106714
-0.084846871
-0.052596218
-0.006155278
-0.024215643
-0.066786505
-0.086136897
-0.091297002
-0.092587028
-0.082266819
-0.061626401
-0.044856061
-0.050016166
-0.059046349
-0.060336375
-0.050016166
-0.016475487
-0.004865251
0.011905088
-0.016475487
-0.039695957
-0.062916427
-0.11193742
-0.086136897
-0.035825878
-0.006155278
-0.010025356
-0.012605408
-0.029375748
-0.057756322
-0.043566035
-0.033245826
-0.047436113
-0.040985983
-0.01518546
0.000294853
-0.019055539
-0.046146087
0.004164931
-0.016475487
-0.028085722
-0.026795696
-0.047436113
-0.083556845
-0.074526662
-0.059046349
-0.033245826
-0.026795696
-0.037115905
-0.047436113
-0.068076531
-0.066786505
-0.050016166
-0.040985983
-0.05517627
-0.04872614
-0.006155278
-0.000995173
-0.025505669
-0.09516708
-0.073236636
-0.034535852
-0.00873533
-0.01518546
-0.017765513
-0.012605408
-0.012605408
-0.0319558
-0.037115905
-0.037115905
-0.042276009
-0.034535852
-0.038405931
-0.034535852
-0.030665774
-0.022925617
-0.00873533
0.002874905
0.026095375
0.000294853
-0.016475487
-0.019055539
-0.020345565
-0.039695957
-0.037115905
-0.034535852
-0.047436113
-0.019055539
0.005454957
0.004164931
0.033835532
0.011905088
-0.006155278
-0.020345565
-0.021635591
-0.006155278
0.011905088
0.004164931
0.004164931
0.009325036
-0.003575225
0.032545506
0.032545506
-0.002285199
0.011905088
-0.006155278
-0.0319558
-0.028085722
-0.030665774
-0.00873533
0.009325036
0.011905088
0.032545506
0.032545506
0.011905088
-0.002285199
0.011905088
0.026095375
0.006744984
-0.000995173
0.026095375
0.045445767
0.027385402
-0.000995173
0.038995637
0.038995637
-0.019055539
-0.006155278
0.004164931
0.005454957
-0.007445304
0.03125548
0.051895898
0.038995637
0.011905088
0.00803501
-0.000995173
0.023515323
0.045445767
0.035125558
0.049315846
0.037705611
0.006744984
-0.007445304
-0.01518546
-0.019055539
-0.010025356
0.035125558
0.068666237
0.060926081
-0.011315382
-0.004865251
-0.020345565
-0.038405931
-0.026795696
0.00803501
0.010615062
0.001584879
0.001584879
0.010615062
0.002874905
0.001584879
0.010615062
-0.011315382
-0.034535852
-0.0319558
-0.002285199
-0.00873533
-0.025505669
-0.000995173
0.017065193
0.011905088
0.011905088
0.018355219
-0.01518546
-0.044856061
-0.056466296
-0.037115905
-0.020345565
-0.003575225
0.028675428
0.048025819
0.035125558
0.001584879
-0.019055539
-0.00873533
0.00803501
0.026095375
0.00803501
0.013195114
0.045445767
0.053185924
0.01448514
0.018355219
0.037705611
0.057056002
0.053185924
0.037705611
0.002874905
-0.016475487
-0.012605408
0.000294853
0.045445767
0.044155741
0.051895898
0.048025819
0.037705611
0.024805349
-0.004865251
0.009325036
0.018355219
0.055765976
0.067376211
0.048025819
0.048025819
0.035125558
0.045445767
0.033835532
0.023515323
0.051895898
0.049315846
0.018355219
0.011905088
0.022225297
0.048025819
0.075116368
0.066086185
0.038995637
0.019645245
0.024805349
0.037705611
0.059636055
0.059636055
0.038995637
0.019645245
0.023515323
0.01448514
0.011905088
0.037705611
0.049315846
0.018355219
0.026095375
0.032545506
0.010615062
0.023515323
0.029965454
0.040285663
0.046735793
0.058346028
0.018355219
-0.003575225
0.026095375
0.048025819
0.044155741
0.03125548
0.018355219
0.026095375
0.032545506
0.036415584
0.03125548
0.046735793
0.076406394
0.053185924
0.000294853
0.005454957
0.018355219
0.029965454
0.019645245
-0.004865251
-0.024215643
-0.004865251
0.027385402
0.037705611
0.03125548
0.019645245
-0.017765513
-0.017765513
-0.026795696
-0.05517627
-0.039695957
-0.01518546
-0.022925617
-0.000995173
0.006744984
0.050605872
0.064796159
0.018355219
-0.007445304
-0.006155278
0.018355219
0.033835532
0.026095375
0.013195114
0.018355219
0.035125558
0.024805349
0.006744984
0.024805349
0.040285663
0.042865715
0.040285663
0.046735793
0.026095375
0.004164931
0.000294853
0.017065193
0.018355219
0.040285663
0.058346028
0.072536316
0.058346028
0.042865715
0.017065193
-0.011315382
0.011905088
0.009325036
0.027385402
0.040285663
0.035125558
0.046735793
0.059636055
0.033835532
0.013195114
-0.003575225
-0.013895434
-0.010025356
-0.029375748
-0.000995173
0.026095375
0.044155741
0.046735793
0.019645245
0.020935271
0.024805349
0.01448514
0.010615062
0.022225297
0.022225297
0.045445767
0.067376211
0.080276472
0.072536316
0.059636055
0.023515323
0.004164931
0.006744984
0.116397204
0.128007439
0.064796159
0.011905088
0.00803501
0.029965454
0.028675428
-0.004865251
-0.020345565
0.006744984
0.049315846
0.049315846
0.023515323
0.015775166
0.001584879
0.013195114
0.036415584
0.01448514
0.017065193
0.019645245
0.037705611
0.048025819
0.055765976
0.05447595
0.035125558
0.013195114
0.005454957
0.002874905
0.011905088
0.036415584
0.035125558
0.019645245
0.001584879
0.006744984
0.035125558
0.042865715
0.032545506
0.035125558
0.033835532
0.013195114
0.002874905
0.017065193
0.024805349
0.032545506
0.044155741
0.024805349
0.027385402
0.03125548
0.028675428
0.015775166
-0.024215643
-0.022925617
-0.007445304
0.005454957
0.035125558
0.038995637
0.029965454
0.033835532
0.033835532
0.033835532
0.038995637
0.051895898
0.032545506
0.05447595
0.066086185
0.037705611
0.01448514
0.010615062
-0.002285199
0.001584879
0.037705611
0.07124629
0.049315846
-0.007445304
-0.056466296
-0.04872614
0.028675428
0.063506133
0.060926081
0.029965454
0.005454957
0.013195114
0.046735793
0.062216107
0.063506133
0.042865715
0.063506133
0.05447595
0.033835532
0.033835532
0.046735793
0.067376211
0.059636055
0.041575689
0.051895898
0.084146551
0.068666237
-0.003575225
0.019645245
0.078986446
0.09446676
0.098336838
0.089306655
0.081566499
0.07769642
0.063506133
0.067376211
0.085436577
0.115107178
0.095756786
0.086726603
0.078986446
0.068666237
0.029965454
0.01448514
0.072536316
0.080276472
0.005454957
-0.012605408
0.001584879
0.036415584
0.081566499
0.095756786
0.064796159
0.072536316
0.086726603
0.051895898
0.057056002
0.084146551
0.069956264
0.049315846
0.050605872
0.097046812
0.11768723
0.122847334
0.113817152
0.112527126
0.09446676
0.099626864
0.082856525
0.053185924
0.048025819
0.07124629
0.075116368
0.073826342
0.084146551
0.085436577
0.080276472
0.049315846
0.064796159
0.069956264
0.045445767
0.028675428
0.042865715
0.044155741
0.050605872
0.033835532
0.018355219
0.009325036
-0.017765513
-0.007445304
0.011905088
0.024805349
0.009325036
-0.00873533
-0.019055539
-0.017765513
-0.003575225
-0.010025356
-0.021635591
-0.006155278
0.001584879
-0.010025356
-0.010025356
-0.004865251
-0.000995173
0.009325036
0.004164931
-0.010025356
-0.024215643
-0.028085722
0.011905088
0.028675428
-0.021635591
-0.042276009
-0.033245826
-0.0319558
-0.028085722
-0.011315382
0.002874905
0.002874905
-0.026795696
-0.010025356
-0.022925617
-0.026795696
-0.017765513
-0.00873533
-0.030665774
-0.039695957
-0.024215643
-0.039695957
-0.053886244
-0.030665774
-0.042276009
-0.090006975
-0.079686766
-0.060336375
-0.062916427
-0.077106714
-0.068076531
-0.057756322
-0.060336375
-0.07194661
-0.05517627
-0.044856061
-0.051306192
-0.100327184
-0.104197263
-0.088716949
-0.113227446
-0.109357367
-0.131287811
-0.15837836
-0.168698569
-0.137737942
-0.146768125
-0.153218255
-0.131287811
-0.136447916
-0.090006975
-0.099037158
-0.101617211
-0.05517627
-0.003575225
0.058346028
0.090596681
0.099626864
0.144777779
0.218309267
0.26733026
0.316351253
0.384722637
0.467284309
0.524045458
0.536945719
0.573066451
0.615637313
0.681428645
0.743349899
0.816881387
0.898153033
0.962654339
0.970394496
0.991034914
0.985874809
0.996195018
1.001355123
1.002645149
1.036185828
1.065856429
1.031025724
1.011675332
0.989744888
0.935563791
0.864612354
0.791080865
0.708519193
0.64659794
0.560166189
0.471154387
0.407943107
0.331831566
0.240239711
0.167998249
0.109947073
0.058346028
-0.013895434
-0.07839674
-0.163538464
-0.266740554
-0.318341599
-0.311891468
-0.302861285
-0.279640815
-0.269320606
-0.24481011
-0.248680188
-0.257710371
-0.271900658
-0.26803058
-0.26158045
-0.238359979
-0.229329797
-0.225459718
-0.209979405
-0.209979405
-0.189338987
-0.148058151
-0.144188073
-0.155798308
-0.176438726
-0.166118517
-0.155798308
-0.137737942
-0.122257628
-0.148058151
-0.154508281
-0.191919039
-0.209979405
-0.172568647
-0.142898046
-0.124837681
-0.136447916
-0.128707759
-0.139027968
-0.153218255
-0.154508281
-0.166118517
-0.171278621
-0.160958412
-0.182888856
-0.162248438
-0.146768125
-0.153218255
-0.172568647
-0.151928229
-0.159668386
-0.151928229
-0.153218255
-0.15837836
-0.185468908
-0.233199875
-0.182888856
-0.144188073
-0.114517472
-0.108067341
-0.140317994
-0.212559457
-0.208689379
-0.154508281
-0.145478099
-0.142898046
-0.139027968
-0.123547655
-0.106777315
-0.129997785
-0.131287811
-0.136447916
-0.151928229
-0.155798308
-0.163538464
-0.129997785
-0.114517472
-0.139027968
-0.150638203
-0.124837681
-0.13515789
-0.153218255
-0.133867864
-0.150638203
-0.194499091
-0.177728752
-0.186758935
-0.157088334
-0.140317994
-0.14160802
-0.133867864
-0.142898046
-0.154508281
-0.157088334
-0.157088334
-0.142898046
-0.113227446
-0.090006975
-0.091297002
-0.11193742
-0.108067341
-0.079686766
-0.083556845
-0.097747132
-0.090006975
-0.101617211
-0.099037158
-0.091297002
-0.068076531
-0.082266819
-0.086136897
-0.084846871
-0.093877054
-0.092587028
-0.101617211
-0.096457106
-0.091297002
-0.083556845
-0.073236636
-0.09516708
-0.105487289
-0.073236636
-0.083556845
-0.11193742
-0.115807498
-0.086136897
-0.042276009
-0.040985983
-0.070656584
-0.07839674
-0.05517627
-0.068076531
-0.068076531
-0.029375748
-0.021635591
-0.060336375
-0.064206453
-0.038405931
-0.00873533
-0.030665774
-0.017765513
-0.007445304
0.015775166
0.001584879
-0.029375748
-0.029375748
-0.000995173
0.026095375
0.050605872
0.023515323
-0.012605408
-0.0319558
-0.019055539
-0.030665774
0.006744984
0.001584879
-0.006155278
0.018355219
0.040285663
0.033835532
-0.000995173
0.018355219
0.090596681
0.097046812
0.108657047
0.045445767
0.013195114
0.018355219
0.050605872
0.057056002
0.067376211
0.078986446
0.090596681
0.104786969
0.072536316
0.060926081
0.063506133
0.053185924
0.050605872
0.076406394
0.062216107
0.035125558
0.069956264
0.116397204
0.113817152
0.098336838
0.090596681
0.103496943
0.111237099
0.11768723
0.108657047
0.111237099
0.098336838
0.111237099
0.111237099
0.102206917
0.108657047
0.13445757
0.177028432
0.192508745
0.148647857
0.115107178
0.130587491
0.167998249
0.195088797
0.188638667
0.182188536
0.192508745
0.167998249
0.156388014
0.174448379
0.18089851
0.187348641
0.196378823
0.200248902
0.188638667
0.166708223
0.177028432
0.191218719
0.200248902
0.22088932
0.22733945
0.213149163
0.197668849
0.228629476
0.205409006
0.144777779
0.13445757
0.142197726
0.156388014
0.138327648
0.149937883
0.173158353
0.156388014
0.138327648
0.122847334
0.104786969
0.11768723
0.097046812
0.130587491
0.139617674
0.116397204
0.121557308
0.108657047
0.090596681
0.089306655
0.109947073
0.108657047
0.112527126
0.10091689
0.059636055
0.035125558
0.022225297
0.013195114
0.013195114
0.002874905
0.015775166
0.029965454
0.013195114
-0.012605408
-0.037115905
-0.035825878
-0.022925617
-0.013895434
-0.019055539
-0.029375748
-0.042276009
-0.052596218
-0.064206453
-0.093877054
-0.117097524
-0.115807498
-0.099037158
-0.075816688
-0.099037158
-0.113227446
-0.108067341
-0.136447916
-0.151928229
-0.155798308
-0.149348177
-0.175148699
-0.215139509
-0.209979405
-0.16482849
-0.16482849
-0.171278621
-0.167408543
-0.162248438
-0.163538464
-0.186758935
-0.207399352
-0.208689379
-0.200949222
-0.197079143
-0.184178882
-0.180308804
-0.184178882
-0.231909849
-0.266740554
-0.260290423
-0.26158045
-0.282220867
-0.255130319
-0.194499091
-0.16482849
-0.171278621
-0.182888856
-0.225459718
-0.242230058
-0.220299614
-0.243520084
-0.246100136
-0.202239248
-0.172568647
-0.148058151
-0.128707759
-0.13515789
-0.159668386
-0.193209065
-0.212559457
-0.243520084
-0.26158045
-0.256420345
-0.235779927
-0.239650005
-0.252550267
-0.233199875
-0.234489901
-0.216429535
-0.213849483
-0.211269431
-0.188048961
-0.199659196
-0.211269431
-0.199659196
-0.207399352
-0.213849483
-0.203529274
-0.175148699
-0.160958412
-0.166118517
-0.190629013
-0.182888856
-0.166118517
-0.18159883
-0.19836917
-0.188048961
-0.184178882
-0.176438726
-0.175148699
-0.163538464
-0.168698569
-0.168698569
-0.151928229
-0.153218255
-0.171278621
-0.168698569
-0.145478099
-0.133867864
-0.146768125
-0.146768125
-0.128707759
-0.139027968
-0.160958412
-0.184178882
-0.191919039
-0.145478099
-0.131287811
-0.142898046
-0.123547655
-0.129997785
-0.129997785
-0.131287811
-0.140317994
-0.139027968
-0.145478099
-0.128707759
-0.140317994
-0.140317994
-0.120967602
-0.069366558
-0.060336375
-0.065496479
-0.083556845
-0.099037158
-0.13515789
-0.128707759
-0.099037158
-0.091297002
-0.091297002
-0.102907237
-0.11193742
-0.102907237
-0.109357367
-0.09516708
-0.091297002
-0.079686766
-0.077106714
-0.105487289
-0.137737942
-0.162248438
-0.162248438
-0.119677576
-0.106777315
-0.093877054
-0.075816688
-0.066786505
-0.102907237
-0.120967602
-0.11838755
-0.099037158
-0.066786505
-0.060336375
-0.070656584
-0.070656584
-0.083556845
-0.093877054
-0.087426923
-0.088716949
-0.080976793
-0.068076531
-0.079686766
-0.064206453
-0.047436113
-0.066786505
-0.087426923
-0.087426923
-0.083556845
-0.086136897
-0.080976793
-0.066786505
-0.079686766
-0.065496479
-0.073236636
-0.080976793
-0.062916427
-0.070656584
-0.068076531
-0.07194661
-0.05517627
-0.060336375
-0.046146087
-0.012605408
0.005454957
-0.030665774
-0.040985983
-0.0319558
-0.017765513
-0.010025356
-0.012605408
-0.021635591
-0.030665774
-0.038405931
-0.033245826
-0.013895434
-0.030665774
-0.043566035
-0.040985983
-0.043566035
-0.037115905
-0.029375748
-0.042276009
-0.039695957
-0.037115905
-0.00873533
-0.028085722
-0.053886244
-0.019055539
-0.017765513
-0.024215643
-0.044856061
0.000294853
0.000294853
0.001584879
-0.05517627
-0.0319558
0.020935271
0.037705611
0.000294853
-0.00873533
-0.002285199
-0.00873533
-0.017765513
-0.017765513
-0.007445304
-0.002285199
0.020935271
0.017065193
0.006744984
0.004164931
0.020935271
-0.00873533
-0.033245826
-0.030665774
-0.040985983
-0.0319558
-0.040985983
-0.04872614
-0.046146087
-0.039695957
-0.0319558
-0.020345565
-0.012605408
-0.035825878
-0.028085722
-0.029375748
-0.051306192
-0.033245826
-0.047436113
-0.010025356
0.009325036
0.000294853
-0.017765513
-0.004865251
0.010615062
0.018355219
-0.004865251
-0.002285199
0.001584879
-0.00873533
-0.007445304
0.001584879
-0.016475487
0.00803501
0.004164931
-0.01518546
-0.051306192
-0.038405931
-0.006155278
0.006744984
0.009325036
-0.00873533
-0.000995173
0.006744984
-0.01518546
-0.0319558
-0.033245826
-0.017765513
-0.007445304
-0.00873533
0.000294853
-0.010025356
-0.019055539
-0.01518546
-0.000995173
0.006744984
-0.010025356
-0.034535852
-0.034535852
-0.050016166
-0.052596218
-0.024215643
-0.011315382
-0.013895434
-0.020345565
-0.047436113
-0.077106714
-0.062916427
-0.028085722
-0.012605408
-0.019055539
-0.043566035
-0.042276009
-0.038405931
-0.033245826
-0.029375748
-0.044856061
-0.021635591
0.009325036
0.013195114
-0.004865251
-0.012605408
-0.019055539
-0.046146087
-0.05517627
-0.046146087
-0.04872614
-0.059046349
-0.020345565
0.019645245
0.035125558
-0.011315382
-0.016475487
-0.007445304
-0.025505669
-0.01518546
0.009325036
0.000294853
-0.013895434
0.000294853
0.011905088
0.038995637
0.049315846
0.037705611
0.005454957
-0.037115905
-0.050016166
-0.074526662
-0.064206453
-0.042276009
-0.00873533
0.009325036
0.013195114
-0.029375748
-0.065496479
-0.056466296
-0.047436113
-0.034535852
-0.040985983
-0.046146087
-0.029375748
0.001584879
-0.010025356
-0.046146087
-0.034535852
-0.037115905
-0.039695957
-0.034535852
-0.020345565
-0.010025356
-0.006155278
0.045445767
0.073826342
0.018355219
0.004164931
-0.017765513
-0.043566035
-0.028085722
0.006744984
0.022225297
0.037705611
0.019645245
0.010615062
0.01448514
0.022225297
0.01448514
-0.006155278
-0.012605408
0.002874905
-0.002285199
-0.002285199
0.005454957
0.023515323
0.03125548
0.033835532
0.046735793
0.03125548
0.024805349
0.03125548
0.024805349
0.018355219
0.000294853
0.046735793
0.068666237
0.032545506
0.063506133
0.073826342
0.045445767
0.026095375
0.017065193
0.027385402
0.046735793
0.064796159
0.067376211
0.059636055
0.064796159
0.050605872
0.019645245
-0.019055539
-0.013895434
0.019645245
0.032545506
0.022225297
-0.000995173
0.019645245
0.038995637
0.053185924
0.038995637
0.019645245
0.011905088
0.023515323
0.013195114
0.000294853
0.01448514
0.024805349
0.044155741
0.067376211
0.048025819
0.05447595
0.067376211
0.063506133
0.027385402
0.011905088
-0.002285199
0.004164931
0.004164931
0.029965454
0.07124629
0.086726603
0.042865715
-0.016475487
-0.011315382
0.009325036
0.010615062
0.002874905
0.017065193
0.032545506
-0.013895434
-0.028085722
0.038995637
0.07769642
0.062216107
0.042865715
-0.006155278
-0.003575225
0.027385402
0.038995637
0.022225297
0.036415584
0.035125558
0.03125548
0.023515323
0.015775166
0.011905088
0.024805349
0.026095375
0.022225297
-0.00873533
-0.00873533
0.011905088
0.037705611
0.032545506
0.045445767
0.032545506
0.045445767
0.029965454
0.029965454
0.051895898
0.046735793
0.038995637
0.05447595
0.042865715
0.046735793
0.036415584
0.033835532
0.069956264
0.07124629
0.075116368
0.068666237
0.022225297
0.018355219
0.045445767
0.057056002
0.040285663
0.050605872
0.046735793
0.038995637
0.026095375
0.029965454
0.038995637
0.064796159
0.046735793
0.055765976
0.062216107
0.035125558
0.040285663
0.058346028
0.048025819
0.046735793
0.041575689
0.046735793
0.013195114
0.018355219
0.01448514
0.057056002
0.069956264
0.042865715
0.011905088
0.015775166
0.026095375
0.041575689
0.060926081
0.057056002
0.055765976
0.046735793
0.027385402
0.026095375
0.022225297
0.019645245
0.019645245
0.033835532
0.059636055
0.075116368
0.064796159
0.046735793
0.032545506
-0.003575225
-0.010025356
0.029965454
0.050605872
0.062216107
0.032545506
0.005454957
0.023515323
0.044155741
0.026095375
0.029965454
0.020935271
0.026095375
0.022225297
0.006744984
-0.003575225
0.002874905
0.036415584
0.040285663
0.015775166
0.010615062
0.01448514
0.010615062
0.038995637
0.073826342
0.093176734
0.044155741
0.067376211
0.035125558
-0.01518546
0.004164931
0.038995637
0.058346028
0.023515323
0.009325036
0.024805349
0.004164931
0.005454957
0.005454957
0.011905088
0.002874905
-0.006155278
0.004164931
0.013195114
0.017065193
0.01448514
0.022225297
0.032545506
0.041575689
0.040285663
0.066086185
0.064796159
0.046735793
0.037705611
0.027385402
0.024805349
0.024805349
0.066086185
0.082856525
0.062216107
0.049315846
0.058346028
0.068666237
0.088016629
0.086726603
0.055765976
0.036415584
0.028675428
0.072536316
0.129297465
0.126717413
0.116397204
0.055765976
0.036415584
0.078986446
0.121557308
0.139617674
0.120267282
0.075116368
0.022225297
0.032545506
0.07124629
0.099626864
0.093176734
0.124137361
0.128007439
0.135747596
0.109947073
0.067376211
0.060926081
0.073826342
0.066086185
0.076406394
0.11768723
0.131877517
0.104786969
0.090596681
0.082856525
0.084146551
0.066086185
0.106076995
0.068666237
0.068666237
0.09446676
0.113817152
0.095756786
0.090596681
0.089306655
0.107367021
0.126717413
0.097046812
0.076406394
0.085436577
0.068666237
0.059636055
0.07769642
0.085436577
0.10091689
0.086726603
0.045445767
0.013195114
0.020935271
0.03125548
0.051895898
0.057056002
0.037705611
0.036415584
0.022225297
0.01448514
0.033835532
0.045445767
0.038995637
0.027385402
0.01448514
0.010615062
0.024805349
0.020935271
0.015775166
-0.007445304
0.00803501
0.018355219
0.018355219
-0.017765513
-0.033245826
-0.000995173
0.024805349
0.011905088
0.018355219
0.000294853
-0.016475487
-0.026795696
-0.012605408
0.000294853
-0.013895434
-0.039695957
-0.01518546
-0.00873533
-0.003575225
0.004164931
0.024805349
0.002874905
-0.028085722
-0.003575225
0.029965454
0.046735793
0.051895898
0.032545506
-0.000995173
0.00803501
0.005454957
-0.000995173
-0.012605408
-0.034535852
-0.000995173
0.046735793
0.057056002
0.024805349
0.010615062
0.002874905
0.020935271
0.017065193
-0.01518546
-0.016475487
0.027385402
0.004164931
-0.028085722
-0.006155278
0.001584879
-0.00873533
-0.017765513
-0.039695957
-0.047436113
-0.060336375
-0.080976793
-0.084846871
-0.065496479
-0.044856061
-0.043566035
-0.064206453
-0.05517627
-0.051306192
-0.047436113
-0.068076531
-0.068076531
-0.119677576
-0.132577837
-0.11193742
-0.07839674
-0.074526662
-0.050016166
-0.046146087
-0.030665774
0.001584879
0.006744984
0.057056002
0.099626864
0.160258092
0.245399816
0.287970678
0.316351253
0.388592715
0.48018457
0.560166189
0.591126816
0.618217365
0.680138619
0.734319716
0.810431257
0.860742276
0.92911366
1.009095279
1.014255384
1.014255384
1.007805253
1.021995541
1.042635959
1.090366925
1.123907604
1.140677944
1.12519763
1.082626768
1.031025724
0.95233413
0.86590238
0.815591361
0.770440447
0.703359089
0.642727861
0.535655693
0.414393238
0.326671462
0.2841006
0.218309267
0.137037622
0.048025819
0.001584879
-0.082266819
-0.168698569
-0.220299614
-0.260290423
-0.255130319
-0.252550267
-0.280930841
-0.311891468
-0.341562069
-0.304151312
-0.271900658
-0.257710371
-0.231909849
-0.208689379
-0.213849483
-0.238359979
-0.224169692
-0.200949222
-0.160958412
-0.124837681
-0.13515789
-0.148058151
-0.145478099
-0.155798308
-0.16482849
-0.16482849
-0.140317994
-0.144188073
-0.162248438
-0.189338987
-0.215139509
-0.237069953
-0.229329797
-0.211269431
-0.209979405
-0.234489901
-0.246100136
-0.251260241
-0.215139509
-0.212559457
-0.212559457
-0.216429535
-0.186758935
-0.180308804
-0.194499091
-0.224169692
-0.203529274
-0.171278621
-0.13515789
-0.127417733
-0.157088334
-0.179018778
-0.169988595
-0.157088334
-0.155798308
-0.159668386
-0.144188073
-0.123547655
-0.133867864
-0.140317994
-0.184178882
-0.213849483
-0.207399352
-0.176438726
-0.159668386
-0.155798308
-0.169988595
-0.144188073
-0.109357367
-0.092587028
-0.110647393
-0.160958412
-0.197079143
-0.197079143
-0.167408543
-0.144188073
-0.122257628
-0.109357367
-0.096457106
-0.091297002
-0.109357367
-0.124837681
-0.14160802
-0.151928229
-0.157088334
-0.14160802
-0.117097524
-0.104197263
-0.099037158
-0.092587028
-0.105487289
-0.120967602
-0.083556845
-0.043566035
-0.056466296
-0.090006975
-0.082266819
-0.093877054
-0.117097524
-0.145478099
-0.124837681
-0.080976793
-0.05517627
-0.061626401
-0.046146087
-0.040985983
-0.104197263
-0.153218255
-0.088716949
-0.068076531
-0.09516708
-0.131287811
-0.09516708
-0.082266819
-0.09516708
-0.086136897
-0.109357367
-0.091297002
-0.037115905
-0.037115905
-0.040985983
-0.034535852
-0.019055539
-0.061626401
-0.080976793
-0.070656584
-0.051306192
-0.025505669
-0.011315382
-0.000995173
-0.004865251
-0.002285199
-0.006155278
-0.035825878
-0.052596218
-0.056466296
-0.046146087
-0.020345565
-0.046146087
-0.068076531
-0.030665774
-0.004865251
-0.000995173
-0.011315382
-0.022925617
-0.043566035
-0.059046349
-0.022925617
0.010615062
-0.000995173
-0.004865251
0.013195114
0.020935271
0.004164931
-0.01518546
0.002874905
0.020935271
0.01448514
0.019645245
0.006744984
0.006744984
0.026095375
0.029965454
0.023515323
0.017065193
0.006744984
0.017065193
0.040285663
0.020935271
-0.028085722
0.009325036
0.029965454
0.07124629
0.080276472
0.066086185
0.068666237
0.081566499
0.062216107
0.055765976
0.088016629
0.085436577
0.084146551
0.106076995
0.120267282
0.107367021
0.10091689
0.106076995
0.137037622
0.146067805
0.128007439
0.108657047
0.103496943
0.121557308
0.138327648
0.124137361
0.146067805
0.156388014
0.13445757
0.1409077
0.139617674
0.161548118
0.155097988
0.153807961
0.139617674
0.183478562
0.202828954
0.142197726
0.125427387
0.151227909
0.177028432
0.193798771
0.170578301
0.162838144
0.139617674
0.161548118
0.15767804
0.16412817
0.146067805
0.142197726
0.169288275
0.167998249
0.149937883
0.139617674
0.116397204
0.082856525
0.108657047
0.152517935
0.135747596
0.146067805
0.113817152
0.09446676
0.075116368
0.089306655
0.080276472
0.059636055
0.106076995
0.128007439
0.126717413
0.115107178
0.091886708
0.104786969
0.093176734
0.072536316
0.057056002
0.042865715
0.044155741
0.028675428
0.032545506
0.03125548
0.032545506
0.037705611
-0.004865251
-0.038405931
-0.042276009
-0.029375748
-0.020345565
-0.047436113
-0.068076531
-0.068076531
-0.056466296
-0.026795696
-0.047436113
-0.090006975
-0.109357367
-0.092587028
-0.129997785
-0.128707759
-0.07839674
-0.090006975
-0.109357367
-0.145478099
-0.159668386
-0.177728752
-0.167408543
-0.136447916
-0.128707759
-0.140317994
-0.171278621
-0.160958412
-0.162248438
-0.15837836
-0.142898046
-0.157088334
-0.194499091
-0.207399352
-0.206109326
-0.203529274
-0.199659196
-0.190629013
-0.203529274
-0.203529274
-0.194499091
-0.208689379
-0.206109326
-0.219009588
-0.239650005
-0.259000397
-0.257710371
-0.247390162
-0.233199875
-0.220299614
-0.211269431
-0.191919039
-0.185468908
-0.190629013
-0.202239248
-0.209979405
-0.226749744
-0.2048193
-0.162248438
-0.168698569
-0.188048961
-0.185468908
-0.195789117
-0.175148699
-0.16482849
-0.171278621
-0.169988595
-0.160958412
-0.176438726
-0.213849483
-0.202239248
-0.166118517
-0.146768125
-0.14160802
-0.15837836
-0.172568647
-0.182888856
-0.197079143
-0.197079143
-0.153218255
-0.154508281
-0.160958412
-0.186758935
-0.191919039
-0.190629013
-0.225459718
-0.240940032
-0.211269431
-0.213849483
-0.190629013
-0.193209065
-0.185468908
-0.190629013
-0.180308804
-0.159668386
-0.166118517
-0.176438726
-0.168698569
-0.124837681
-0.108067341
-0.101617211
-0.124837681
-0.15837836
-0.173858673
-0.177728752
-0.172568647
-0.16482849
-0.146768125
-0.136447916
-0.131287811
-0.151928229
-0.14160802
-0.166118517
-0.182888856
-0.199659196
-0.2048193
-0.194499091
-0.190629013
-0.212559457
-0.213849483
-0.191919039
-0.154508281
-0.110647393
-0.109357367
-0.131287811
-0.167408543
-0.191919039
-0.182888856
-0.194499091
-0.179018778
-0.150638203
-0.155798308
-0.151928229
-0.13515789
-0.115807498
-0.102907237
-0.105487289
-0.129997785
-0.162248438
-0.150638203
-0.149348177
-0.154508281
-0.15837836
-0.14160802
-0.136447916
-0.128707759
-0.117097524
-0.127417733
-0.115807498
-0.129997785
-0.132577837
-0.136447916
-0.110647393
-0.117097524
-0.11838755
-0.140317994
-0.144188073
-0.136447916
-0.168698569
-0.163538464
-0.154508281
-0.151928229
-0.171278621
-0.120967602
-0.093877054
-0.088716949
-0.114517472
-0.126127707
-0.132577837
-0.126127707
-0.106777315
-0.086136897
-0.073236636
-0.079686766
-0.059046349
-0.038405931
-0.017765513
-0.030665774
-0.051306192
-0.05517627
-0.060336375
-0.057756322
-0.052596218
-0.057756322
-0.061626401
-0.074526662
-0.07194661
-0.057756322
-0.060336375
-0.062916427
-0.038405931
-0.051306192
-0.068076531
-0.064206453
-0.04872614
-0.053886244
-0.064206453
-0.047436113
-0.007445304
-0.020345565
-0.039695957
-0.01518546
-0.034535852
-0.052596218
-0.075816688
-0.077106714
-0.056466296
-0.043566035
-0.022925617
-0.019055539
0.020935271
-0.017765513
-0.029375748
-0.044856061
-0.060336375
-0.052596218
-0.029375748
-0.025505669
-0.035825878
-0.029375748
-0.000995173
0.002874905
-0.003575225
-0.007445304
-0.00873533
-0.017765513
-0.011315382
0.001584879
0.002874905
-0.013895434
-0.00873533
0.009325036
0.001584879
0.017065193
0.020935271
0.040285663
0.041575689
0.035125558
0.019645245
0.002874905
0.010615062
0.038995637
0.03125548
0.032545506
0.028675428
-0.017765513
-0.011315382
-0.000995173
0.001584879
0.020935271
0.018355219
0.00803501
0.018355219
0.024805349
0.029965454
0.002874905
-0.024215643
-0.029375748
-0.034535852
-0.019055539
-0.010025356
0.015775166
0.017065193
-0.00873533
-0.016475487
-0.000995173
-0.024215643
-0.059046349
-0.042276009
0.01448514
0.018355219
-0.016475487
-0.024215643
-0.012605408
-0.004865251
0.011905088
0.000294853
-0.00873533
-0.01518546
-0.024215643
0.004164931
0.005454957
-0.011315382
-0.010025356
-0.029375748
-0.040985983
-0.030665774
-0.022925617
-0.010025356
-0.017765513
-0.035825878
-0.040985983
-0.020345565
-0.030665774
-0.05517627
-0.057756322
-0.034535852
-0.040985983
-0.040985983
-0.061626401
-0.046146087
-0.035825878
-0.061626401
-0.080976793
-0.062916427
-0.059046349
-0.053886244
-0.035825878
-0.039695957
-0.022925617
-0.037115905
-0.0319558
-0.016475487
0.009325036
-0.030665774
-0.065496479
-0.047436113
-0.030665774
0.037705611
0.049315846
0.027385402
-0.004865251
-0.028085722
-0.020345565
-0.021635591
-0.040985983
-0.040985983
-0.013895434
-0.006155278
-0.004865251
0.005454957
-0.006155278
0.005454957
-0.003575225
-0.003575225
-0.013895434
-0.039695957
-0.044856061
-0.029375748
-0.021635591
-0.007445304
-0.022925617
-0.028085722
-0.042276009
-0.051306192
-0.046146087
-0.083556845
-0.120967602
-0.137737942
-0.108067341
-0.083556845
-0.07194661
-0.074526662
-0.092587028
-0.11838755
-0.102907237
-0.079686766
-0.083556845
-0.097747132
-0.093877054
-0.053886244
-0.022925617
-0.025505669
-0.007445304
0.033835532
0.060926081
0.051895898
0.060926081
0.078986446
0.078986446
0.089306655
0.095756786
0.084146551
0.104786969
0.103496943
0.103496943
0.098336838
0.099626864
0.090596681
0.059636055
0.009325036
0.033835532
0.009325036
0.024805349
0.042865715
0.040285663
0.042865715
0.046735793
0.059636055
0.103496943
0.11768723
0.108657047
0.104786969
0.063506133
0.037705611
0.07769642
0.106076995
0.137037622
0.1409077
0.112527126
0.088016629
0.082856525
0.07124629
0.068666237
0.050605872
0.063506133
0.076406394
0.068666237
0.060926081
0.020935271
0.018355219
0.038995637
0.020935271
0.006744984
0.041575689
0.069956264
0.080276472
0.057056002
0.060926081
0.05447595
0.045445767
0.046735793
0.044155741
0.037705611
0.060926081
0.106076995
0.097046812
0.078986446
0.068666237
0.064796159
0.080276472
0.069956264
0.037705611
0.03125548
0.035125558
0.024805349
0.046735793
0.060926081
0.062216107
0.059636055
0.073826342
0.044155741
0.042865715
0.040285663
0.085436577
0.066086185
0.037705611
0.048025819
0.05447595
0.066086185
0.058346028
0.037705611
0.045445767
0.046735793
0.023515323
0.019645245
0.028675428
0.020935271
0.010615062
0.023515323
0.041575689
0.060926081
0.045445767
0.001584879
0.018355219
0.058346028
0.041575689
0.046735793
0.038995637
0.044155741
0.028675428
0.002874905
0.026095375
0.053185924
0.048025819
0.040285663
0.010615062
0.020935271
0.015775166
0.026095375
0.032545506
0.029965454
0.050605872
0.057056002
0.045445767
0.029965454
0.020935271
0.033835532
0.041575689
0.03125548
0.028675428
0.042865715
0.020935271
0.022225297
0.015775166
0.050605872
0.028675428
0.00803501
0.038995637
0.048025819
-0.006155278
0.026095375
0.059636055
0.090596681
0.131877517
0.115107178
0.080276472
0.07769642
0.067376211
0.080276472
0.085436577
0.104786969
0.085436577
0.081566499
0.084146551
0.073826342
0.076406394
0.073826342
0.072536316
0.05447595
0.046735793
0.024805349
0.017065193
0.058346028
0.080276472
0.082856525
0.082856525
0.090596681
0.080276472
0.084146551
0.11768723
0.133167543
0.143487752
0.1409077
0.109947073
0.089306655
0.095756786
0.085436577
0.093176734
0.090596681
0.069956264
0.064796159
0.062216107
0.049315846
0.053185924
0.062216107
0.064796159
0.038995637
0.01448514
0.005454957
0.033835532
0.07124629
0.072536316
0.073826342
0.066086185
0.050605872
0.038995637
0.068666237
0.11768723
0.108657047
0.064796159
0.018355219
0.042865715
0.103496943
0.097046812
0.082856525
0.07124629
0.069956264
0.064796159
0.048025819
0.032545506
0.049315846
0.040285663
0.038995637
0.062216107
0.060926081
0.048025819
0.033835532
0.040285663
0.026095375
0.015775166
0.002874905
0.00803501
0.020935271
0.033835532
0.053185924
0.036415584
-0.003575225
-0.006155278
-0.002285199
0.006744984
0.009325036
0.037705611
0.053185924
0.044155741
0.03125548
0.036415584
0.035125558
0.010615062
0.001584879
0.022225297
0.041575689
0.040285663
0.048025819
0.042865715
0.045445767
0.053185924
0.046735793
0.023515323
-0.004865251
-0.00873533
0.011905088
0.060926081
0.040285663
0.004164931
0.005454957
0.028675428
0.037705611
0.05447595
0.037705611
0.020935271
0.005454957
0.033835532
0.10091689
0.108657047
0.085436577
0.060926081
0.048025819
0.041575689
0.050605872
0.088016629
0.090596681
0.075116368
0.068666237
0.069956264
0.081566499
0.073826342
0.081566499
0.064796159
0.022225297
0.046735793
0.080276472
0.046735793
0.029965454
0.038995637
0.050605872
0.049315846
0.078986446
0.063506133
0.063506133
0.082856525
0.067376211
0.051895898
0.081566499
0.075116368
0.040285663
0.045445767
0.078986446
0.113817152
0.11768723
0.109947073
0.09446676
0.085436577
0.103496943
0.089306655
0.075116368
0.072536316
0.067376211
0.038995637
0.050605872
0.062216107
0.038995637
0.023515323
0.033835532
0.020935271
0.022225297
0.023515323
0.020935271
0.038995637
0.062216107
0.069956264
0.038995637
0.038995637
0.036415584
0.022225297
0.033835532
0.048025819
0.046735793
0.035125558
0.058346028
0.049315846
-0.00873533
0.018355219
0.01448514
-0.004865251
-0.019055539
-0.011315382
-0.044856061
-0.07839674
-0.104197263
-0.087426923
-0.064206453
-0.0319558
-0.037115905
-0.077106714
-0.066786505
-0.042276009
-0.040985983
-0.047436113
-0.065496479
-0.070656584
-0.043566035
-0.029375748
-0.042276009
-0.051306192
-0.059046349
-0.019055539
-0.025505669
-0.016475487
-0.038405931
-0.060336375
-0.060336375
-0.079686766
-0.079686766
-0.051306192
-0.083556845
-0.082266819
-0.050016166
-0.052596218
-0.053886244
-0.040985983
-0.060336375
-0.050016166
-0.026795696
-0.028085722
-0.051306192
-0.047436113
-0.01518546
-0.011315382
-0.024215643
-0.047436113
-0.050016166
-0.073236636
-0.083556845
-0.075816688
-0.082266819
-0.099037158
-0.110647393
-0.104197263
-0.113227446
-0.137737942
-0.168698569
-0.168698569
-0.16482849
-0.155798308
-0.100327184
-0.025505669
-0.006155278
-0.038405931
-0.038405931
0.001584879
0.049315846
0.106076995
0.188638667
0.262170156
0.342151775
0.402783003
0.44019376
0.491794805
0.52017538
0.564036268
0.637567757
0.723999507
0.791080865
0.841391884
0.896863007
0.951044104
0.983294757
1.021995541
1.014255384
1.000065097
1.009095279
1.043925985
1.077466664
1.087786873
1.046506037
1.023285567
0.993614966
0.921373503
0.855582171
0.787210787
0.71625935
0.638857783
0.575646503
0.472444413
0.386012663
0.280230521
0.209279085
0.147357831
0.07769642
0.023515323
-0.057756322
-0.167408543
-0.212559457
-0.260290423
-0.313181494
-0.315761547
-0.302861285
-0.289961024
-0.26803058
-0.270610632
-0.306731364
-0.273190685
-0.28480092
-0.328661808
-0.311891468
-0.259000397
-0.22803977
-0.2048193
-0.182888856
-0.163538464
-0.16482849
-0.122257628
-0.126127707
-0.179018778
-0.190629013
-0.162248438
-0.157088334
-0.150638203
-0.15837836
-0.160958412
-0.153218255
-0.16482849
-0.188048961
-0.195789117
-0.162248438
-0.131287811
-0.133867864
-0.173858673
-0.159668386
-0.18159883
-0.202239248
-0.193209065
-0.177728752
-0.136447916
-0.100327184
-0.110647393
-0.177728752
-0.179018778
-0.171278621
-0.185468908
-0.208689379
-0.213849483
-0.180308804
-0.167408543
-0.16482849
-0.145478099
-0.129997785
-0.150638203
-0.175148699
-0.186758935
-0.197079143
-0.167408543
-0.137737942
-0.150638203
-0.154508281
-0.145478099
-0.139027968
-0.153218255
-0.155798308
-0.146768125
-0.151928229
-0.129997785
-0.120967602
-0.127417733
-0.151928229
-0.166118517
-0.15837836
-0.148058151
-0.142898046
-0.131287811
-0.162248438
-0.153218255
-0.142898046
-0.160958412
-0.176438726
-0.175148699
-0.168698569
-0.166118517
-0.16482849
-0.182888856
-0.172568647
-0.185468908
-0.180308804
-0.186758935
-0.160958412
-0.132577837
-0.157088334
-0.132577837
-0.113227446
-0.123547655
-0.105487289
-0.120967602
-0.079686766
-0.080976793
-0.105487289
-0.096457106
-0.114517472
-0.127417733
-0.122257628
-0.074526662
-0.083556845
-0.110647393
-0.100327184
-0.075816688
-0.082266819
-0.087426923
-0.109357367
-0.127417733
